-9071.60303413868,1164.06860154867
-9056.68874424696,1187.00093138218
-9046.86848431826,1194.74312132597
-9041.75606435537,1208.6643512249
-9030.59333443642,1233.80348104239
-9028.6807744503,1239.26531100273
-9021.01214450598,1246.89716094732
-9003.08189463615,1278.27050071955
-8994.84317469597,1288.36661064625
-8994.95351469517,1283.60360068083
-8986.32860475779,1296.86279058456
-8978.67836481333,1309.31282049417
-8979.39557480812,1304.20040053129
-8977.31750482321,1304.64176052809
-8976.48995482922,1309.31282049417
-8981.7678847909,1297.59839057922
-8987.02742475271,1291.32740062475
-8989.43651473522,1283.0151206851
-8994.08918470144,1270.17890077829
-8999.10965466499,1263.70562082529
-9005.98751461506,1247.65115094185
-9018.49271452427,1222.2177811265
-9025.6096444726,1206.69662123919
-9030.31748443842,1193.89718133211
-9042.65717434883,1172.39927148819
-9056.3945042491,1154.7264816165
-9057.58985424042,1153.43918162584
-9073.57076412439,1129.58735179901
-9085.72655403614,1105.71713197231
-9087.73106402159,1111.71227192879
-9090.94931399822,1106.45273196697
-9097.86395394802,1088.50409209728
-9099.20642393827,1083.70430213213
-9097.60649394989,1093.69007205963
-9099.48227393627,1087.29035210609
-9099.15125393867,1090.17758208513
-9094.24112397432,1099.48292201757
-9093.35840398073,1107.86876195669
-9084.82544404268,1121.84516185522
-9079.51073408127,1131.00338178873
-9074.23280411959,1139.84897172451
-9060.14606422186,1161.10781157017
-9050.28902429342,1186.89059138298
-9046.15127432346,1195.1109213233
-9038.8320543766,1209.25283122063
-9026.51075446606,1232.93915104866
-9021.72935450077,1238.41937100887
-9013.89521455765,1246.27190095186
-8997.34421467781,1277.73719072342
-8991.45941472054,1283.71394068003
-8992.41569471359,1281.47036069632
-8984.37926477194,1294.17785060406
-8974.4670548439,1310.91275048256
-8977.79564481974,1305.10151052475
-8974.9635848403,1306.35203051567
-8974.59578484297,1310.74724048376
-8978.99099481106,1297.54322057962
-8982.52187478542,1289.63552063704
-8986.84352475405,1281.21290069818
-8989.87787473202,1268.83643078804
-8995.19258469343,1261.46204084158
-9005.01284462214,1244.58002096415
-9016.69049453735,1219.18343114853
-9023.12699449062,1202.26463127136
-9032.45072442293,1192.0949613452
-9044.25710433722,1171.16714149714
-9051.83378428221,1150.47839164734
-9055.47500425577,1150.90136164427
-9069.26750415564,1127.89547181129
-9085.54265403748,1105.73552197218
-9086.81156402826,1110.68243193626
-9091.22516399622,1104.09881198406
-9101.43161392212,1087.21679210663
-9099.53744393587,1087.23518210649
-9095.51003396511,1093.96592205763
-9097.86395394802,1087.40069210529
-9098.78345394135,1092.62345206738
-9096.76055395603,1102.11269199848
-9094.49858397245,1109.30318194628
-9091.15160399675,1119.67514187098
-9084.77027404308,1130.26778179407
-9077.54300409555,1140.91559171677
-9067.61240416765,1163.31461155415
-9054.73940426111,1187.20322138071
-9048.24773430824,1196.52695131302
-9042.2342043519,1210.96310120821
-9030.85079443455,1232.203551054
-9027.59576445818,1236.0470610261
-9017.16863453388,1246.17995095253
-9003.48647463322,1277.38778072596
-8994.89834469557,1284.00818067789
-8991.33068472147,1280.27501070499
-8985.2803747654,1293.86522060633
-8978.1450548172,1310.3426604867
-8979.56108480692,1305.91067051888
-8978.49446481466,1305.23024052382
-8976.34283483028,1310.32427048683
-8977.07843482494,1302.96827054024
-8982.30119478703,1290.51824063063
-8989.39973473549,1282.35308068991
-8996.25920468569,1268.10083079338
-8997.34421467781,1259.54948085546
-9008.83796459436,1245.6466409564
-9019.50416451693,1219.1466511488
-9029.3428144455,1202.0255612731
-9035.55863440037,1192.62827134132
-9048.17417430878,1170.35798150301
-9058.9691042304,1155.05750161409
-9058.9139342308,1150.27610164881
-9072.66965413094,1123.94162184
-9084.99095404148,1101.72650200129
-9082.69220405817,1106.28722196817
-9090.54473400116,1102.84829199314
-9100.71440392733,1083.70430213213
-9102.33272391558,1083.15260213614
-9102.79247391224,1094.00270205736
-9105.90038388968,1084.62380212545
-9106.819883883,1087.52942210436
-9100.93508392572,1100.75183200836
-9096.00656396151,1107.24350196123
-9086.9035140276,1119.38090187311
-9081.77270406485,1129.67930179834
-9077.23037409782,1140.17999172211
-9065.51594418287,1163.35139155388
-9051.04301428795,1183.65395140648
-9045.6915243268,1190.60537135601
-9036.25745439529,1207.70807123184
-9027.81644445658,1228.02902108431
-9024.76370447874,1234.31840103865
-9012.90215456486,1247.63276094198
-8997.39938467741,1277.47973072529
-8990.68703472614,1283.53004068136
-8990.81576472521,1279.7784807086
-8984.14019477367,1295.74100059271
-8979.21167480946,1307.56577050686
-8979.76337480545,1304.34752053022
-8981.5472047925,1303.18895053864
-8977.57496482134,1307.25314050913
-8978.62319481373,1297.76390057802
-8980.49897480011,1288.82636064291
-8987.02742475271,1279.723310709
-8993.15129470825,1267.51235079765
-8998.42922466993,1258.61159086227
-9009.64712458849,1244.32256096601
-9021.30638450384,1213.53770118952
-9029.83934444189,1200.29690128565
-9033.95870441198,1189.00544136763
-9042.5100543499,1168.20635151863
-9057.09332424402,1152.55646163225
-9060.64259421825,1150.05542165041
-9072.8535541296,1124.97146183252
-9083.46458405256,1103.970081985
-9085.52426403761,1110.62726193666
-9090.28727400303,1104.90797197819
-9095.80427396297,1087.36391210556
-9100.42016392946,1087.76849210262
-9102.79247391224,1090.23275208473
-9107.62904387712,1081.31360214949
-9107.96006387472,1086.11339211464
-9104.13494390249,1101.28514200449
-9099.27998393774,1109.35835194588
-9095.34452396631,1121.12795186043
-9085.13807404041,1133.06306177378
-9079.2164940834,1140.8420317173
-9069.54335415363,1164.73064154387
-9055.29110425711,1185.80558139086
-9048.21095430851,1194.8350713253
-9038.22518438101,1212.93083119392
-9026.16134446859,1231.54151105881
-9024.48785448074,1234.59425103664
-9016.26752454042,1249.63727092743
-9002.86121463776,1280.42213070393
-8997.34421467781,1284.74378067255
-8997.56489467621,1284.19208067656
-8991.71687471867,1301.58902055025
-8982.65060478449,1313.10116046667
-8984.6735047698,1305.34058052301
-8984.82062476873,1306.2784705162
-8981.4368647933,1308.96341049671
-8983.66205477715,1297.28576058149
-8987.15615475178,1291.21706062555
-8988.5721847415,1278.60152071714
-8994.86156469584,1267.45718079805
-8999.31194466352,1260.10118085146
-9007.32998460531,1243.88120096922
-9022.29944449663,1216.36976116896
-9029.82095444202,1202.50370126963
-9037.37924438715,1192.46276134253
-9049.44308429956,1166.88227152824
-9057.57146424055,1151.69213163853
-9057.95765423775,1149.41177165508
-9074.37992411852,1124.54849183559
-9085.72655403614,1102.90346199274
-9083.57492405176,1109.21123194695
-9088.70573401451,1102.20464199781
-9096.5030939579,1087.19840210676
-9102.84764391184,1087.51103210449
-9098.76506394148,1092.21887207031
-9104.48435389996,1084.25600212812
-9104.26367390156,1091.88785207272
-9098.89379394054,1101.57938200235
-9091.55618399382,1108.27334195375
-9087.05063402653,1120.88888186216
-9084.95417404175,1129.73447179794
-9075.37298411131,1143.47180169821
-9063.2539741993,1166.77193152905
-9051.55793428421,1186.54118138552
-9046.92365431786,1194.5592213273
-9035.3195644021,1213.04117119312
-9027.65093445778,1234.90688103437
-9028.23941445351,1233.85865104198
-9017.46287453175,1247.44886094332
-9001.07738465071,1278.85898071527
-8997.08675467968,1282.09562069178
-8995.65233469009,1279.30034071207
-8986.73318475485,1298.66501057148
-8982.74255478382,1310.96792048216
-8985.68495476246,1302.47174054384
-8981.1058447957,1306.35203051567
-8980.09439480305,1309.00019049644
-8984.14019477367,1297.32254058123
-8985.92402476072,1288.49534064531
-8992.41569471359,1279.52102071047
-8998.85219466686,1266.51929080486
-9005.28869462013,1254.58418089151
-9012.20333456993,1238.32742100954
-9027.06245446205,1209.71258121729
-9034.52879440784,1201.73132127523
-9041.70089435577,1188.95027136803
-9051.96251428127,1167.32363152504
-9059.92538422346,1152.39095163345
-9059.64953422546,1153.29206162691
-9075.48332411051,1121.55092185736
-9088.65056401491,1104.79763197899
-9089.82752400637,1106.43434196711
-9091.39067399502,1098.89444202185
-9100.0155839324,1085.85593211651
-9102.88442391157,1087.10645210743
-9102.47984391451,1093.0464220643
-9103.6935839057,1086.9593321085
-9102.60857391357,1091.13386207819
-9100.78796392679,1103.3632119894
-9098.21336394548,1112.11685192585
-9091.15160399675,1123.64738184214
-9083.0600040555,1130.21261179447
-9076.73384410143,1141.52246171236
-9064.81712418795,1164.160551548
-9052.36709427834,1182.31148141623
-9043.42955434322,1193.06963133812
-9035.15405440331,1211.45963120461
-9026.41880446672,1232.3690610528
-9021.32477450371,1235.20112103224
-9010.98959457874,1251.71534091234
-8993.35358470678,1279.87043070793
-8990.72381472588,1280.31179070473
-8991.18356472254,1281.36002069712
-8980.24151480198,1303.88777053356
-8977.59335482121,1312.93565046787
-8981.97017478943,1305.54287052155
-8983.68044477701,1307.34509050846
-8979.63464480639,1310.1219804883
-8988.53540474176,1296.6788905859
-8987.57912474871,1291.01477062702
-8993.02256470919,1279.06127071381
-8997.93269467354,1268.13761079311
-9002.91638463736,1253.90375089645
-9011.7251945734,1237.86767101288
-9025.9958344698,1212.61820119619
-9031.65995442867,1200.57275128365
-9035.13566440344,1188.15950137377
-9051.46598428488,1164.84098154306
-9060.73454421759,1151.0484816432
-9062.61032420397,1149.28304165602
-9077.45105409622,1116.6959618926
-9086.37020403147,1101.87362200022
-9089.8643040061,1106.9308719635
-9093.00899398327,1100.25530201197
-9097.64327394962,1084.91804212332
-9099.31676393747,1088.32019209862
-9097.75361394882,1093.34066206217
-9099.48227393627,1087.1248421073
-9096.81572395563,1092.88091206551
-9094.88477396965,1104.79763197899
-9092.32856398821,1107.77681195736
-9081.84626406431,1121.58770185709
-9078.22343409061,1131.42635178566
-9073.11101412773,1141.76153171062
-9062.24252420664,1166.95583152771
-9048.67070430517,1188.1962813735
-9041.13080435991,1193.98913133144
-9032.6897944212,1214.60432118177
-9025.70159447193,1233.89543104172
-9020.95697450638,1236.39647102356
-9012.1665545702,1255.87148088217
-8997.71201467514,1285.20353066921
-8993.09612470865,1286.50922065973
-8991.7536547184,1286.8034606576
-8983.47815477848,1303.94294053316
-8976.67385482788,1312.23683047295
-8981.30813479424,1303.4280205369
-8979.72659480572,1308.50366050005
-8974.43027484417,1309.49672049284
-8978.45768481493,1298.73857057095
-8980.84838479757,1292.30207061768
-8985.335544765,1278.19694072008
-8990.39279472828,1269.38813078403
-8992.91222470999,1258.99778085947
-9006.99896460772,1237.55504101515
-9022.07876449823,1213.46414119005
-9031.73351442814,1202.68760126829
-9038.776884377,1187.53424137831
-9053.24981427193,1164.01343154907
-9063.73211419582,1153.99088162184
-9063.18041419983,1148.71295166016
-9076.32926410437,1120.61303186417
-9087.19775402546,1105.12865197659
-9086.4621540308,1111.38125193119
-9092.32856398821,1098.83927202225
-9095.43647396564,1087.03289210796
-9100.56728392839,1085.26745212078
-9100.27304393053,1089.6994420886
-9103.5280739069,1083.6123521328
-9102.47984391451,1092.18209207058
-9098.59955394268,1105.03670197725
-9091.96076399088,1109.22962194681
-9085.52426403761,1122.15779185295
-9081.53363406658,1129.18277180195
-9078.09470409155,1142.00060170889
-9063.10685420036,1165.68692153692
-9053.36015427113,1188.0859413743
-9047.18111431599,1194.87185132504
-9037.43441438675,1211.64353120327
-9027.08084446192,1232.57135105133
-9023.36606448889,1235.2195110321
-9015.5687045455,1251.67856091261
-8998.46600466967,1283.2909706831
-8996.05691468716,1281.80138069391
-8997.25226467848,1282.70249068737
-8987.57912474871,1302.41657054424
-8982.00695478916,1313.83676046133
-8985.335544765,1303.40963053703
-8981.6023747921,1306.2784705162
-8981.52881479263,1309.80935049057
-8985.59300476313,1296.09041059017
-8987.04581475258,1292.7250406146
-8990.92610472441,1279.6681407094
-8995.68911468983,1269.31457078457
-9000.01076465845,1257.69209086895
-9008.06558459997,1241.36177098751
-9018.9708545208,1215.7445011735
-9024.61658447981,1202.48531126976
-9034.60235440731,1190.82605135441
-9050.28902429342,1165.76048153639
-9056.54162424803,1158.44126158953
-9057.92087423801,1152.20705163479
-9070.37090414762,1121.49575185776
-9081.64397406578,1105.51484197378
-9083.70365405083,1111.38125193119
-9090.80219399929,1102.68278199434
-9097.34903395176,1087.27196210623
-9097.58810395002,1090.43504208326
-9096.31919395924,1096.46696203947
-9097.97429394722,1087.19840210676
-9097.64327394962,1093.4877820611
-9092.9354339838,1106.14010196924
-9089.11031401157,1113.49610191584
-9086.5173240304,1126.18520182371
-9079.8785340786,1133.33891177177
-9075.31781411171,1146.11996167898
-9064.02635419369,1172.12342149019
-9050.84072428942,1189.64909136295
-9043.55828434229,1198.182051301
-9034.36328440905,1219.71674114466
-9025.24184447527,1236.89300101995
-9021.95003449917,1239.98252099752
-9011.37578457594,1258.48286086321
-8997.25226467848,1284.85412067175
-8994.95351469517,1289.63552063704
-8995.68911468983,1289.12060064077
-8987.43200474977,1309.09214049578
-8983.51493477821,1315.78610044718
-8985.059694767,1307.2163605094
-8979.37718480825,1315.05050045252
-8976.47156482935,1313.61608046293
-8980.81160479784,1299.14315056801
-8984.48960477114,1290.29756063223
-8992.37891471386,1278.93254071474
-8999.09126466513,1269.2410107851
-9000.80153465271,1261.51721084118
-9009.92297458649,1239.79862099886
-9021.50867450237,1210.90793120861
-9029.96807444096,1201.25318127871
-9039.82511436939,1190.34791135788
-9049.93961429596,1167.8937215209
-9055.86119425297,1159.08491158485
-9057.09332424402,1153.10816162825
-9071.10650414228,1121.55092185736
-9080.59574407339,1106.80214196444
-9081.71753406525,1114.08458191156
-9087.74945402145,1103.7494019866
-9098.85701394081,1088.37536209822
-9098.65472394228,1087.41908210516
-9100.27304393053,1091.42810207605
-9104.09816390276,1090.0304620862
-9102.13043391705,1097.29451203346
-9097.36742395163,1106.85731196404
-9092.07110399008,1114.0661919117
-9086.9035140276,1125.89096182585
-9080.17277407646,1134.29519176483
-9074.49026411772,1146.81878167391
-9057.55307424068,1171.99469149113
-9052.3303142786,1187.77331137657
-9049.2591843009,1195.95686131716
-9035.77931439877,1217.49155116081
-9031.99097442627,1233.87704104185
-9024.56141448021,1238.06996101141
-9014.02394455671,1256.44157087803
-8999.44067466259,1286.32532066107
-8994.64088469744,1285.01963067055
-8988.7376947403,1289.7090806365
-8979.63464480639,1307.84162050486
-8974.5773948431,1316.5952604413
-8975.1842648387,1309.27604049444
-8976.37961483002,1314.29651045799
-8975.77274483442,1313.2482804656
-8978.4209048152,1301.14766055346
-8983.29425477982,1291.98944061995
-8988.3515047431,1276.35794073343
-8994.47537469864,1267.42040079832
-8999.93720465899,1255.5772408843
-9010.07009458542,1237.75733101368
-9024.24878448248,1211.18378120661
-9028.44170445204,1203.16574126482
-9038.6665443778,1186.61474138498
-9051.07979428768,1164.03182154894
-9057.92087423801,1158.03668159246
-9063.73211419582,1149.59567165375
-9078.94064408541,1118.18555188179
-9088.11725401878,1106.25044196844
-9088.22759401798,1109.17445194721
-9094.07561397552,1098.87605202198
-9098.56277394295,1083.74108213186
-9099.9604139328,1088.54087209702
-9097.09157395363,1092.38438206911
-9098.30531394482,1085.80076211691
-9093.35840398073,1095.71297204494
-9089.33099400997,1105.99298197031
-9082.7289840579,1112.90762192011
-9081.00032407045,1125.39443182945
-9077.50622409582,1134.18485176563
-9072.83516412973,1149.87152165174
-9060.09089422226,1177.10711145401
-9049.05689430237,1190.42147135735
-9046.16966432333,1196.45339131355
-9032.81852442026,1219.75352114439
-9024.50624448061,1235.3850210309
-9022.3178344965,1236.98495101929
-9011.504514575,1257.83921086788
-8996.57183468342,1283.62199068069
-8993.42714470625,1281.02900069952
-8990.55830472708,1281.47036069632
-8982.59543478489,1299.01442056894
-8978.34734481573,1308.13586050272
-8977.53818482161,1300.77986055613
-8974.37510484457,1305.68999052048
-8972.94068485498,1303.99811053276
-8976.98648482561,1293.53420060873
-8979.91049480438,1286.196590662
-8982.85289478302,1276.44989073277
-8989.05032473803,1265.8388608098
-8996.77412468195,1254.14282089472
-9006.44726461172,1237.97801101208
-9020.46044450998,1211.03666120768
-9028.7359444499,1200.33368128538
-9034.78625440598,1188.43535137177
-9047.43857431412,1162.04570156336
-9054.62906426191,1154.43224161863
-9058.60130423307,1148.45549166203
-9073.71788412333,1117.2476618886
-9081.91982406378,1105.90103197098
-9086.97707402706,1108.62275195122
-9092.10788398981,1098.19562202692
-9097.91912394762,1084.25600212812
-9098.30531394482,1088.06273210049
-9100.1810939312,1090.195972085
-9103.43612390757,1084.14566212893
-9099.35354393721,1093.80041205883
-9094.60892397165,1102.27820199728
-9091.96076399088,1111.63871192932
-9084.64154404402,1123.29797184467
-9079.8785340786,1135.26986175776
-9070.02149415016,1146.15674167871
-9055.38305425644,1173.20843148232
-9048.17417430878,1189.42841136456
-9043.37438434362,1198.42112129927
-9033.60929441452,1219.55123114586
-9023.32928448915,1235.18273103237
-9020.73629450798,1236.87461102009
-9010.23560458422,1256.75420087576
-8994.30986469984,1285.49777066708
-8991.14678472281,1282.83122068644
-8990.31923472881,1285.60811066628
-8980.22312480211,1302.9866605401
-8976.85775482655,1309.49672049284
-8975.69918483496,1303.35446053743
-8973.16136485338,1308.55883049965
-8973.10619485378,1306.79339051247
-8978.84387481213,1296.60533058643
-8982.65060478449,1289.23094063997
-8987.22971475124,1274.59250074625
-8994.5489346981,1264.27571082115
-9000.45212465525,1254.74969089031
-9007.77134460211,1234.46552103758
-9023.93615448475,1207.02764123678
-9030.18875443935,1195.46033132076
-9038.11484438181,1184.13209140301
-9050.87750428915,1160.8687415719
-9061.61726421118,1152.02315163612
-9061.61726421118,1146.52454167604
-9077.39588409662,1115.59256190062
-9085.04612404108,1105.27577197552
-9086.95868402719,1106.14010196924
-9092.8802639842,1097.55197203159
-9100.03397393227,1087.62137210369
-9101.61551392078,1090.39826208353
-9103.16027390957,1093.45100206137
-9102.88442391157,1086.02144211531
-9101.54195392132,1093.5429520607
-9096.37436395884,1104.0252519846
-9090.04820400476,1116.03392189741
-9085.35875403881,1122.54398185015
-9082.32440406084,1133.96417176723
-9072.9087241292,1147.7566716671
-9061.72760421038,1173.24521148205
-9049.84766429663,1188.38018137217
-9043.52150434256,1196.72924131155
-9034.38167440891,1216.95824116468
-9028.6256044507,1231.65185105801
-9021.12248450518,1236.35969102383
-9008.78279459476,1259.10812085867
-8994.73283469677,1287.11609065533
-8993.37197470665,1281.50714069605
-8988.99515473843,1286.5827806592
-8978.69675481319,1308.35654050112
-8978.12666481733,1308.50366050005
-8980.94033479691,1302.72920054197
-8974.55900484324,1308.44849050045
-8977.46462482214,1303.68548053503
-8983.29425477982,1294.45370060205
-8985.90563476086,1287.92525064945
-8991.34907472134,1276.94642072916
-8993.97884470224,1268.65253078938
-8999.90042465925,1257.47141087055
-9011.46773457527,1235.25629103184
-9024.12005448341,1211.5148012042
-9030.88757443428,1201.60259127617
-9040.10096436739,1185.21710139513
-9055.87958425283,1157.3562515974
-9061.06556421518,1153.16333162785
-9065.68145418167,1142.62586170435
-9076.32926410437,1117.06376188993
-9082.69220405817,1105.77230197191
-9083.24390405416,1110.6640419364
-9089.45972400904,1095.16127204895
-9097.64327394962,1084.89965212345
-9099.46388393641,1089.644272089
-9100.38338392973,1091.53844207525
-9102.13043391705,1087.69493210316
-9099.70295393467,1096.76120203733
-9096.76055395603,1105.07348197699
-9091.51940399408,1114.13975191116
-9088.65056401491,1124.40137183666
-9082.23245406151,1130.78270179033
-9075.63044410944,1149.08075165749
-9059.94377422333,1175.61752146482
-9052.14641427994,1190.69732135534
-9048.15578430891,1197.90620130301
-9035.33795440197,1219.88225114346
-9025.97744446993,1236.06545102596
-9022.75919449329,1235.18273103237
-9009.09542459249,1262.34476083517
-8997.80396467447,1285.68167066574
-8995.83623468876,1280.09111070633
-8991.22034472227,1284.39437067509
-8985.04130476713,1305.11990052462
-8981.91500478983,1310.58173048496
-8984.30570477247,1302.36140054464
-8979.70820480585,1307.62094050646
-8980.90355479717,1306.22330051661
-8984.58155477047,1293.92039060593
-8988.11243474483,1287.92525064945
-8991.73526471853,1277.05676072836
-8999.42228466272,1265.76530081034
-9005.32547461987,1253.40722090006
-9016.94795453548,1234.53908103704
-9027.79805445671,1209.73097121716
-9035.4850744009,1201.01411128044
-9047.19950431585,1181.46554142237
-9060.09089422226,1162.54223155975
-9066.96875417233,1153.71503162384
-9071.58464413881,1144.3545216918
-9089.25743401051,1112.76050192118
-9093.79976397753,1105.42289197445
-9090.2504940033,1109.10089194775
-9098.89379394054,1096.63247203827
-9106.89344388247,1086.26051211357
-9104.87054389715,1091.04191207886
-9105.95555388927,1093.45100206137
-9107.57387387753,1090.1408020854
-9105.05444389582,1098.87605202198
-9099.55583393574,1108.80665194988
-9096.02495396137,1113.44093191624
-9090.15854400396,1127.10470181704
-9081.12905406952,1136.86979174614
-9075.42815411091,1150.49678164721
-9062.73905420303,1177.45652145147
-9057.00137424469,1194.04430133104
-9051.09818428755,1201.28996127844
-9038.7217143774,1221.73964112997
-9031.64156442881,1236.70910102129
-9024.12005448341,1243.14560097456
-9010.34594458342,1268.11922079325
-8996.16725468636,1292.13656061888
-9000.36017465591,1287.35516065359
-8993.50070470572,1292.54114061594
-8984.10341477394,1314.46202045679
-8982.54026478529,1313.65286046267
-8989.06871473789,1301.44190055132
-8986.16309475899,1309.93808048964
-8986.08953475952,1306.995680511
-8991.808824718,1296.21914058924
-8992.83866471052,1286.61956065893
-8999.49584466219,1273.15808075666
-9003.83588463068,1263.0987508297
-9010.60340458155,1253.22332090139
-9020.84663450718,1231.83575105667
-9031.03469443321,1205.7035612464
-9038.22518438101,1199.23028129339
-9046.37195432186,1181.04257142544
-9061.43336421251,1160.15153157711
-9064.50449419022,1154.30351161957
-9069.63530415297,1144.15223169327
-9087.49199402332,1114.37882190943
-9096.13529396057,1106.78375196457
-9097.73522394896,1111.52837193012
-9103.54646390676,1097.62553203106
-9109.00829386711,1082.12276214361
-9106.83827388287,1088.72477209568
-9106.72793388367,1086.2421221137
-9104.46596390009,1082.15954214334
-9103.96943390369,1091.42810207605
-9102.86603391171,1102.14947199821
-9102.14882391691,1112.96279191971
-9093.56069397926,1124.03357183933
-9088.41149401665,1135.98707175255
-9077.87402409315,1150.69907164574
-9063.1988041997,1175.24972146749
-9052.826844275,1190.09045135975
-9046.73975431919,1199.00960129499
-9036.77237439156,1222.97177112103
-9029.48993444443,1236.96656101942
-9026.76821446419,1239.54116100073
-9015.16412454844,1262.4367108345
-9003.43130463362,1288.64246064425
-9002.62214463949,1286.2517606616
-8997.10514467955,1288.29305064678
-8988.11243474483,1306.995680511
-8987.9653147459,1309.03697049618
-8987.30327475071,1303.4831905365
-8987.94692474604,1309.03697049618
-8989.39973473549,1303.63031053543
-8995.87301468849,1295.11574059725
-8995.00868469477,1288.58729064465
-9001.97849464417,1273.83851075172
-9007.82651460171,1264.44122081995
-9012.2217245698,1253.90375089645
-9020.93858450651,1229.57378107309
-9033.82997441292,1203.12896126509
-9039.3837543726,1195.77296131849
-9049.75571429729,1180.04951143265
-9060.53225421906,1157.22752159834
-9067.24460417032,1151.01170164347
-9071.54786413908,1142.36840170622
-9092.21822398901,1110.4985319376
-9095.19740396738,1107.50096195936
-9097.86395394802,1107.33545196056
-9105.34868389368,1093.74524205923
-9107.13251388073,1083.94337213039
-9105.47741389275,1089.58910208941
-9107.24285387993,1090.91318207979
-9111.01280385256,1084.03532212973
-9109.13702386618,1096.59569203854
-9103.71197390556,1108.01588195562
-9101.33966392279,1113.14669191837
-9094.27790397406,1121.62448185682
-9091.20677399635,1134.2032417655
-9081.86465406418,1149.50372165442
-9064.70678418875,1175.1945514679
-9058.03121423721,1188.34340137243
-9056.19221425056,1197.86942130327
-9042.54683434963,1221.26150113344
-9035.94482439756,1236.12062102556
-9029.19569444656,1238.16191101074
-9015.43997454643,1265.65496081114
-9006.33692461252,1284.26564067602
-9006.30014461279,1280.09111070633
-9000.80153465271,1287.96203064919
-8992.25018471479,1306.22330051661
-8989.30778473616,1305.06473052502
-8993.66621470451,1297.85585057735
-8986.62284475565,1307.49221050739
-8985.2252047658,1300.65113055706
-8988.31472474337,1291.36418062449
-8993.97884470224,1284.63344067335
-8997.25226467848,1271.44781076908
-9003.92783463001,1262.4367108345
-9010.23560458422,1250.02346092463
-9022.70402449369,1224.99467110634
-9033.48056441545,1202.33819127083
-9042.36293435097,1191.74555134773
-9052.4958242774,1176.26117146015
-9065.33204418421,1151.4346716404
-9069.92954415083,1149.02558165789
-9072.83516412973,1137.9364117384
-9087.14258402586,1106.6550219655
-9094.62731397152,1102.09430199862
-9092.05271399021,1105.80908197165
-9097.99268394709,1092.51311206818
-9108.10718387365,1080.90902215242
-9107.50031387806,1089.99368208647
-9109.06346386671,1088.33858209848
-9111.19670385122,1083.446842134
-9108.56693387032,1095.49229204655
-9105.33029389381,1102.16786199808
-9099.02252393961,1111.50998193026
-9092.10788398981,1122.56237185001
-9090.58151400089,1128.68624180555
-9084.77027404308,1150.23932164907
-9068.34800416231,1178.02661144733
-9060.69776421785,1190.16401135921
-9052.07285428047,1201.4186912775
-9042.54683434963,1225.41764110327
-9036.36779439449,1231.89092105627
-9028.03712445498,1236.70910102129
-9017.51804453135,1264.60673081875
-9007.64261460304,1285.07480067015
-9004.8105546236,1280.1095007062
-8998.99931466579,1289.24933063984
-8988.5170147419,1307.1611905098
-8987.17454475164,1308.30137050152
-8989.28939473629,1299.970700562
-8984.7286747694,1307.28992050886
-8987.35844475031,1304.66015052795
-8993.44553470612,1292.92733061314
-8997.16031467915,1284.44954067469
-9003.72554463148,1270.87772077322
-9009.15059459209,1260.92873084545
-9014.9066645503,1246.58453094959
-9025.24184447527,1224.95789110661
-9035.74253439903,1204.43465125561
-9042.93302434683,1192.84895133972
-9051.22691428661,1176.00371146202
-9067.96181416512,1155.94022160769
-9069.02843415737,1151.1588216424
-9073.66271412373,1137.97319173813
-9091.48262399435,1108.12622195482
-9098.02946394682,1102.70117199421
-9100.60406392813,1102.95863199234
-9104.42918390036,1093.1015920639
-9112.99892383814,1081.46072214842
-9108.10718387365,1085.85593211651
-9110.99441385269,1082.01242214441
-9114.81953382492,1081.33199214935
-9105.90038388968,1095.98882204294
-9104.87054389715,1102.53566199541
-9101.90975391865,1113.60644191504
-9093.17450398207,1126.07486182451
-9091.07804399729,1134.2584117651
-9085.02773404121,1147.22336167097
-9069.08360415697,1174.8083614707
-9061.67243421078,1187.46068137884
-9057.88409423828,1197.83264130354
-9045.01109433174,1220.47073113918
-9039.75155436993,1233.56441104412
-9031.99097442627,1238.60327100754
-9019.17314451933,1265.37911081314
-9007.45871460438,1283.30936068296
-9007.31159460545,1279.98077070713
-9001.61069464684,1288.64246064425
-8991.4778047204,1307.2163605094
-8989.30778473616,1306.6646605134
-8989.98821473122,1301.47868055105
-8988.48023474216,1308.96341049671
-8990.90771472454,1302.91310054064
-8992.36052471399,1291.21706062555
-8997.34421467781,1283.14385068417
-9003.41291463375,1269.66398078203
-9005.6932746172,1257.03005087376
-9009.62873458862,1246.05122095346
-9025.00277447701,1227.97385108471
-9035.6505843997,1203.62549126148
-9040.54232436419,1194.28337132931
-9051.79700428247,1178.35763144493
-9063.01490420103,1156.63904160261
-9066.85841417313,1151.71052163839
-9076.16375410557,1136.94335174561
-9092.769923985,1106.08493196964
-9095.32613396645,1103.05058199167
-9098.74667394161,1103.38160198927
-9101.94653391838,1092.29243206978
-9107.94167387486,1081.24004215002
-9109.17380386591,1087.73171210289
-9110.3323738575,1081.75496214628
-9112.88858383894,1082.14115214348
-9107.095733881,1094.55440205336
-9103.89587390423,1103.03219199181
-9101.30288392305,1114.15814191103
-9093.6526439786,1123.73933184147
-9089.49650400877,1129.53218179941
-9083.3910240531,1150.11059165001
-9069.8927641511,1177.40135145187
-9060.90005421638,1187.53424137831
-9054.75779426098,1199.08316129446
-9043.17209434509,1223.81771111488
-9036.84593439102,1235.95511102676
-9030.26231443882,1236.69071102142
-9019.15475451946,1263.19070082903
-9007.34837460518,1283.0151206851
-9005.17835462093,1278.03143072128
-9001.55552464724,1285.75523066521
-8991.68009471893,1304.89922052622
-8987.34005475044,1307.14280050993
-8990.24567472935,1300.76147055626
-8987.76302474737,1305.52448052168
-8990.09855473042,1300.90859055519
-8993.64782470465,1289.58035063744
-8998.6131246686,1279.59458070993
-9004.60826462507,1268.57897078991
-9008.08397459984,1259.01617085934
-9015.05378454924,1246.1431709528
-9023.27411448956,1221.51896113157
-9040.04579436779,1199.11994129419
-9048.39485430717,1190.71571135521
-9059.48402422667,1171.7924014926
-9070.81226414442,1149.33821165562
-9072.44897413254,1149.46694165468
-9081.33134406805,1133.15501177311
-9098.13980394602,1105.34933197498
-9098.52599394321,1103.84135198593
-9100.89830392599,1103.95169198513
-9108.34625387192,1089.40520209074
-9113.09087383747,1082.85836213827
-9111.25187385082,1084.93643212318
-9115.70225381851,1082.61929214001
-9117.87227380276,1081.95725214481
-9112.07942384481,1093.63490206003
-9109.68872386217,1101.04607200623
-9105.64292389154,1113.10991191864
-9100.05236393213,1123.35314184427
-9091.68491399288,1129.53218179941
-9080.54057407379,1145.84411168098
-9067.37333416939,1175.56235146523
-9060.67937421799,1188.80315136909
-9054.55550426245,1198.58663129807
-9041.90318435431,1219.36733114719
-9032.96564441919,1231.41278105974
-9028.38653445244,1235.7712110281
-9016.61693453789,1263.0987508297
-9007.88168460131,1275.01547074318
-9005.4174246192,1268.26634079218
-9002.69570463896,1275.67751073837
-8998.7234646678,1293.497420609
-8994.19952470064,1296.4030405879
-8994.53054469824,1293.47903060913
-8989.32617473602,1301.14766055346
-8993.70299470425,1290.94121062756
-8995.76267468929,1280.78993070126
-9000.30500465631,1271.39264076948
-9004.93928462267,1259.200070858
-9011.43095457554,1252.43255090714
-9018.3088145256,1239.2837010026
-9029.61866444349,1216.11230117083
-9040.76300436258,1191.5984313488
-9048.26612430811,1182.42182141542
-9056.32094424963,1167.36041152477
-9069.74564415216,1147.18658167124
-9073.44203412533,1144.31774169207
-9080.17277407646,1128.90692180395
-9092.64119398594,1096.90832203627
-9096.30080395937,1097.60714203119
-9100.54889392853,1094.31533205509
-9106.52564388514,1079.67689216137
-9114.06554383039,1073.73692220449
-9109.68872386217,1081.99403214455
-9112.74146384001,1076.78966218233
-9116.78726381063,1073.20361220837
-9109.52321386337,1087.52942210436
-9106.9853938818,1094.77508205175
-9104.11655390263,1105.40450197458
-9095.69393396378,1117.50512188673
-9091.96076399088,1126.29554182291
-9083.1151740551,1146.43259167671
-9070.22378414869,1172.03147149086
-9061.92989420891,1184.83091139793
-9052.90040427446,1196.71085131168
-9042.5100543499,1217.65706115961
-9037.94933438301,1227.40376108885
-9032.76335442066,1231.26566106081
-9017.90423452854,1260.94712084532
-9007.58744460344,1276.56023073196
-9006.83345460892,1271.68688076735
-9002.25434464216,1280.86349070072
-8994.14435470104,1298.00297057629
-8991.55136471987,1297.1202505827
-8991.14678472281,1292.08139061928
-8985.62978476286,1299.16154056787
-8988.48023474216,1293.18479061127
-8992.52603471279,1282.99673068523
-9000.74636465311,1274.84996074438
-9005.031234622,1260.74483084679
-9009.05864459276,1254.30833089352
-9017.40770453215,1240.58939099312
-9029.47154444456,1215.6893311739
-9039.89867436886,1198.31078130007
-9043.79735434055,1192.13174134493
-9055.07042425871,1171.09358149767
-9068.67902415991,1146.56132167578
-9073.0190641284,1143.56375169754
-9080.76125407219,1125.26570183039
-9095.32613396645,1098.78410202265
-9096.9444539547,1097.99333202839
-9098.06624394655,1097.77265202999
-9107.2060738802,1082.28827214241
-9108.75083386898,1074.63803219795
-9108.91634386778,1079.9895221591
-9111.21509385109,1075.79660218954
-9112.06103384495,1075.88855218887
-9108.78761386871,1086.49958211184
-9105.69809389114,1094.09465205669
-9101.61551392078,1107.02282196283
-9096.68699395657,1117.83614188433
-9087.87818402052,1122.81983184814
-9080.98193407059,1144.4096916914
-9068.69741415977,1171.55333149433
-9065.42399418354,1183.87463140488
-9055.98992425203,1198.47629129887
-9043.87091434002,1217.73062115908
-9039.2734143734,1229.09564107656
-9030.64850443602,1234.37357103825
-9014.70437455177,1263.46655082703
-9006.04268461466,1279.13483071327
-9006.50243461132,1273.1396907568
-8997.10514467955,1284.54149067402
-8990.63186472654,1300.81664055586
-8988.42506474257,1299.62129056454
-8989.45490473509,1296.86279058456
-8983.91951477528,1301.57063055038
-8989.12388473749,1291.21706062555
-8993.29841470718,1282.24274069071
-8996.49827468395,1272.16502076387
-9001.22450464964,1259.54948085546
-9004.00139462948,1251.40271091461
-9015.25607454777,1234.66781103611
-9029.3428144455,1210.65047121048
-9041.20436435938,1191.12029135227
-9049.66376429796,1183.63556140661
-9057.49790424109,1164.3260615468
-9069.02843415737,1145.23724168539
-9072.09956413507,1142.80976170301
-9081.88304406404,1123.33475184441
-9093.96527397633,1094.05787205696
-9099.97880393267,1096.5037420392
-9100.42016392946,1094.18660205603
-9111.39899384975,1077.39653217793
-9114.61724382639,1072.48640221357
-9112.90697383881,1080.02630215883
-9114.37817382813,1072.39445221424
-9113.71613383293,1073.27717220783
-9107.50031387806,1087.63976210356
-9106.58081388474,1095.45551204681
-9101.56034392118,1106.72858196497
-9095.78588396311,1116.21782189608
-9092.58602398634,1124.51171183586
-9085.68977403641,1139.42600172758
-9071.80532413721,1165.35590153933
-9065.73662418127,1177.41974145174
-9059.6311442256,1190.73410135508
-9045.48923432827,1213.44575119019
-9042.52844434977,1223.06372112036
-9033.22310441732,1229.81285107136
-9017.79389452934,1258.96100085974
-9009.50000458956,1271.79722076654
-9010.34594458342,1263.65045082569
-9002.1807846427,1277.24066072702
-8992.72832471132,1294.34336060286
-8994.25469470024,1288.66085064411
-8994.18113470078,1286.32532066107
-8992.50764471292,1293.07445061207
-8994.53054469824,1284.22886067629
-9000.10271465778,1278.73025071621
-9004.7002146244,1269.1306707859
-9010.58501458168,1254.69452089071
-9016.41464453936,1245.9224909544
-9024.28556448221,1231.33922106028
-9036.60686439276,1205.50127124786
-9047.10755431652,1185.54812139273
-9052.550994277,1177.73237144947
-9060.77132421732,1161.89858156443
-9072.72482413054,1139.99609172344
-9074.98679411411,1139.05820173025
-9085.63460403681,1116.29138189554
-9100.43855392933,1091.42810207605
-9102.71891391277,1094.60957205296
-9103.87748390436,1091.33615207672
-9114.04715383053,1077.08390218019
-9117.72515380383,1072.08182221651
-9116.34590381384,1078.53671216965
-9119.60093379021,1072.55996221304
-9120.72272378206,1072.00826221704
-9117.21023380756,1084.71575212479
-9113.27477383614,1092.60506206751
-9108.62210386992,1106.06654196978
-9105.05444389582,1116.16265189648
-9101.10059392452,1124.93468183279
-9091.28033399582,1145.53148168325
-9076.0901941061,1168.0040615201
-9070.60997414589,1178.33924144506
-9064.41254419088,1190.53181135654
-9055.08881425858,1213.86872118711
-9045.72830432653,1223.57864111662
-9039.99062436819,1229.83124107122
-9027.00728446245,1261.05746084452
-9015.0721745491,1274.27987074852
-9013.74809455872,1266.64802080393
-9006.98057460785,1276.22921073437
-8999.84525465965,1295.18930059671
-9000.67280465364,1291.38257062435
-8999.95559465885,1289.30450063944
-8996.31437468529,1295.57549059391
-8998.92575466633,1286.89541065693
-9003.70715463161,1276.39472073317
-9006.04268461466,1265.80208081007
-9011.28383457661,1257.72887086868
-9017.35253453255,1246.40063095093
-9026.56592446566,1231.52312105894
-9036.58847439289,1207.11959123611
-9047.32823431492,1187.90204137564
-9053.48888427019,1176.11405146122
-9065.62628418207,1159.17686158419
-9078.07631409168,1138.87430173159
-9080.0440440774,1138.10192173719
-9090.94931399822,1116.34655189514
-9104.74181389809,1090.23275208473
-9108.41981387138,1094.84864205122
-9107.62904387712,1088.63282209635
-9115.44479382038,1070.64740222692
-9121.64222377539,1066.91423225403
-9117.32057380676,1073.71853220463
-9119.49059379101,1068.07280224562
-9119.9319537878,1070.86808222532
-9119.39864379168,1081.47911214828
-9116.19878381491,1089.68105208874
-9107.27963387966,1103.62067198753
-9106.30496388674,1110.57209193707
-9102.64535391331,1119.74870187044
-9090.74702399969,1139.31566172838
-9078.86708408594,1164.05021154881
-9073.05584412813,1173.77852147818
-9065.27687418461,1188.71120136976
-9053.26820427179,1209.76775121689
-9047.62247431278,1217.12375116348
-9044.07320433855,1227.07274109125
-9026.97050446272,1255.48529088497
-9018.10652452707,1266.81353080273
-9015.99167454243,1263.70562082529
-9010.75052458048,1275.69590073824
-9000.45212465525,1289.30450063944
-9000.36017465591,1285.46099066734
-9002.08883464336,1284.35759067535
-8996.77412468195,1292.81699061394
-8998.282104671,1278.82220071554
-9000.19466465712,1274.50055074692
-9007.09091460705,1263.88952082396
-9015.77099454403,1251.27398091555
-9019.78001451492,1245.16850095987
-9024.83726447821,1230.05192106962
-9038.35391438007,1203.00023126602
-9049.13045430183,1184.05853140354
-9055.43822425604,1175.47040146589
-9066.72968417406,1153.82537162304
-9078.11309409142,1139.84897172451
-9078.44411408901,1135.82156175375
-9092.58602398634,1114.76501190662
-9106.13945388794,1086.9593321085
-9109.87262386084,1092.40277206898
-9113.27477383614,1086.48119211197
-9119.41703379154,1073.11166220903
-9119.65610378981,1069.43366223574
-9119.14118379354,1074.87710219622
-9127.76609373093,1069.672732234
-9126.29489374161,1069.32332223654
-9121.36637377739,1083.31811213493
-9116.89760380983,1089.71783208847
-9109.63355386257,1102.07591199875
-9104.85215389729,1109.02733194828
-9101.17415392399,1119.71192187071
-9090.17693400383,1138.37777173519
-9076.12697410583,1165.08005154133
-9073.1845741272,1173.99920147657
-9065.90213418007,1188.49052137136
-9053.08430427313,1210.44818121195
-9050.38097429276,1215.32153117657
-9040.91012436152,1222.47524112463
-9025.37057447433,1255.35656088591
-9017.42609453201,1268.56058079004
-9016.21235454082,1262.6573908329
-9012.20333456993,1274.00402075052
-9003.02672463655,1286.04947066307
-9000.70958465338,1283.98979067802
-9002.41985464096,1285.66328066587
-8998.35566467047,1291.45613062382
-9000.10271465778,1281.01061069965
-9002.32790464163,1272.8638407588
-9008.8195745945,1264.12859082222
-9012.62630456686,1250.74067091942
-9018.06974452734,1240.77329099178
-9032.34038442373,1221.97871112823
-9044.64329433441,1193.89718133211
-9055.30949425697,1176.72092145681
-9059.17139422894,1167.7833815217
-9068.95487415791,1146.63488167524
-9081.90143406391,1131.49991178513
-9083.37263405323,1129.38506180048
-9097.56971395016,1106.7101919651
-9109.37609386444,1078.68383216858
-9111.49094384909,1084.95482212305
-9117.74354380369,1079.89757215977
-9126.47879374027,1065.82922226191
-9129.03500372171,1060.84553229809
-9125.15471374989,1068.12797224522
-9126.9017637372,1062.31673228741
-9124.43750375509,1063.199452281
-9121.67900377512,1073.42429220676
-9119.26991379261,1082.45378214121
-9114.12071382999,1098.12206202745
-9108.32786387205,1110.6640419364
-9103.95104390383,1119.23378187418
-9092.31017398834,1140.06965172291
-9080.33828407526,1161.23654156923
-9071.95244413614,1172.36249148846
-9065.38721418381,1184.72057139874
-9056.0634842515,1205.3725412488
-9052.45904427767,1211.01827120781
-9045.67313432693,1220.74658113718
-9026.98889446259,1252.70840090513
-9019.90874451399,1258.75871086121
-9018.6398345232,1256.25767087936
-9011.39417457581,1269.75593078136
-9004.22207462788,1282.64732068777
-9003.61520463228,1277.95787072182
-9002.34629464149,1279.24517071247
-9001.3532346487,1285.60811066628
-9005.1967446208,1273.69139075279
-9008.35982459784,1264.91936081648
-9013.04927456379,1256.75420087576
-9020.22137451172,1242.17093098164
-9023.86259448528,1234.11611104012
-9033.02081441879,1220.52590113878
-9047.80637431145,1193.12480133772
-9054.57389426231,1180.10468143225
-9060.31157422066,1165.79726153612
-9071.30879414082,1144.1338416934
-9085.81850403547,1127.54606181383
-9084.47603404522,1125.28409183025
-9098.39726394415,1101.83684200048
-9112.06103384495,1077.43331217766
-9112.70468384027,1084.09049212933
-9115.72064381838,1079.7688421607
-9122.32265377045,1061.94893229008
-9127.65575373173,1059.2456023097
-9125.04437375069,1066.12346225977
-9130.78205370903,1061.45240229368
-9129.34763371944,1068.20153224468
-9122.28587377071,1077.98501217365
-9119.84000378847,1084.84448212385
-9113.93681383133,1094.70152205229
-9109.32092386484,1104.74246197939
-9105.53258389235,1114.15814191103
-9094.79282397032,1139.42600172758
-9082.82093405724,1158.88262158632
-9077.81885409355,1167.13973152637
-9067.35494416952,1183.56200140715
-9054.35321426392,1205.81390124559
-9051.63149428368,1212.59981119633
-9040.81817436218,1224.14873111248
-9027.11762446165,1254.89681088924
-9021.52706450224,1259.12651085854
-9021.14087450504,1260.91034084558
-9014.31818455458,1270.69382077456
-9007.86329460144,1286.0862506628
-9008.8747445941,1277.97626072168
-9004.95767462254,1279.96238070726
-9002.80604463816,1282.6841006875
-9006.63116461039,1269.7927107811
-9011.28383457661,1262.78612083197
-9015.5135345459,1253.07620090246
-9023.84420448542,1242.70424097776
-9028.05551445484,1236.61715102196
-9037.43441438675,1221.68447113037
-9049.00172430277,1193.29031133652
-9055.32788425684,1177.73237144947
-9060.42191421986,1168.35347151756
-9074.10407412052,1146.69005167484
-9084.56798404455,1131.04016178846
-9084.60476404428,1128.04259181023
-9097.99268394709,1102.49888199568
-9110.18525385857,1078.75739216805
-9114.21266382933,1085.00999212265
-9118.46075379848,1078.99646216631
-9124.23521375656,1057.55372232199
-9126.38684374094,1059.6317923069
-9124.80530375242,1067.06135225296
-9128.88788372278,1060.29383230209
-9123.7754637599,1062.88682228327
-9120.90662378073,1073.31395220757
-9116.32751381397,1080.85385215282
-9114.21266382933,1091.96141207218
-9112.74146384001,1103.6390619874
-9104.88893389702,1111.85939192772
-9093.22967398167,1133.50442177057
-9079.69463407993,1160.66645157337
-9077.32232409716,1168.13279151917
-9064.37576419115,1182.78962141275
-9055.98992425203,1203.29447126389
-9051.46598428488,1207.43222123384
-9042.63878434896,1218.08003115654
-9026.12456446886,1249.30625092983
-9023.32928448915,1256.00021088123
-9023.73386448622,1254.69452089071
-9017.79389452934,1270.03178077936
-9008.39660459757,1281.54392069578
-9011.28383457661,1275.43844074011
-9010.45628458261,1273.94885075092
-9006.64955461025,1278.95093071461
-9012.97571456432,1268.92838078737
-9015.20090454817,1261.92179083824
-9019.61450451612,1250.09702092409
-9022.46495449543,1239.15497100353
-9028.03712445498,1229.99675107002
-9037.19534438848,1216.71917116642
-9048.06383430958,1187.46068137884
-9058.28867423534,1169.84306150675
-9063.86084419489,1162.74452155828
-9075.68561410904,1141.0627117157
-9088.24598401785,1127.96903181076
-9088.06208401918,1123.26119184494
-9101.35805392265,1097.3312920332
-9112.74146384001,1076.45864218473
-9113.01731383801,1079.97113215923
-9117.57803380489,1073.53463220596
-9126.22133374214,1058.01347231865
-9127.19600373507,1057.09397232533
-9126.71786373854,1062.8132622838
-9129.73382371664,1055.42048233747
-9129.73382371664,1060.23866230249
-9126.11099374294,1074.76676219702
-9119.32508379221,1080.96419215202
-9114.39656382799,1090.471822083
-9107.64743387699,1104.31949198246
-9104.53952389956,1112.92601191998
-9091.68491399288,1134.73655176163
-9078.59123408794,1160.05958157778
-9074.03051412106,1168.46381151676
-9064.68839418888,1183.70912140608
-9052.4406542778,1204.06685125828
-9048.46841430664,1208.64596122503
-9038.31713438034,1220.61785113811
-9025.31540447474,1251.25559091568
-9017.26058453321,1255.20944088697
-9019.41221451759,1249.94990092516
-9008.89313459396,1267.64108079672
-9001.4084046483,1283.2909706831
-9004.27724462748,1275.89819073677
-9003.46808463335,1279.19000071287
-9000.39695465565,1284.79895067215
-9003.68876463175,1272.14663076401
-9004.46114462614,1263.31943082809
-9010.14365458488,1251.05330091715
-9015.27446454763,1238.19869101048
-9023.64191448689,1233.76670104265
-9032.76335442066,1217.69384115934
-9046.31678432226,1189.96172136068
-9054.72101426125,1174.20149147511
-9058.38062423468,1165.42946153879
-9070.81226414442,1141.0627117157
-9082.8944940567,1127.63801181316
-9082.82093405724,1124.49332183599
-9093.08255398273,1098.12206202745
-9107.99684387445,1076.21957218647
-9111.60128384829,1082.56412214041
-9116.78726381063,1073.55302220583
-9123.3892737627,1057.49855232239
-9126.47879374027,1054.35386234522
-9125.57768374681,1060.34900230169
-9126.82820373774,1055.18141233921
-9122.94791376591,1062.31673228741
-9119.96873378754,1073.53463220596
-9114.89309382439,1080.02630215883
-9110.29559385777,1089.47876209021
-9104.42918390036,1099.26224201918
-9097.27547395229,1108.88021194935
-9087.21614402533,1135.96868175268
-9075.74078410864,1156.06895160675
-9069.63530415297,1162.56062155962
-9062.16896420717,1179.68171143532
-9052.01768428087,1199.61647129059
-9046.86848431826,1201.49225127697
-9039.40214437246,1217.78579115868
-9027.11762446165,1249.72922092676
-9022.1523244977,1254.16121089458
-9020.99375450611,1249.82117092609
-9011.21027457714,1266.72158080339
-9001.70264464617,1279.13483071327
-9004.46114462614,1271.19035077095
-9003.92783463001,1273.34198075533
-9001.88654464483,1278.14177072048
-9004.95767462254,1265.36072081327
-9008.56211459637,1257.45302087069
-9013.82165455818,1249.41659092903
-9020.71790450811,1235.9367210269
-9025.20506447554,1225.3992511034
-9032.94725441933,1207.67129123211
-9045.8570343256,1181.1713014245
-9055.36466425657,1164.2157215476
-9063.32753419876,1156.41836160421
-9074.47187411785,1132.71365177631
-9083.26229405403,1122.45203185081
-9082.6738140583,1118.86598187685
-9095.47325396538,1090.471822083
-9107.86811387539,1070.79452222586
-9112.17137384415,1072.76225221157
-9112.48400384188,1067.19008225203
-9121.71578377485,1053.83894234896
-9123.37088376284,1055.45726233721
-9126.11099374294,1059.44789230824
-9127.80287373066,1050.25289237499
-9124.80530375242,1057.07558232546
-9119.67449378967,1071.93470221758
-9118.09295380116,1077.92984217405
-9116.16200381517,1087.87883210182
-9113.16443383694,1098.41630202532
-9103.38095390797,1108.93538194895
-9091.02287399769,1133.57798177004
-9078.37055408955,1152.94265162945
-9075.9798541069,1159.67339158058
-9064.15508419275,1177.56686145067
-9055.86119425297,1197.15221130848
-9054.46355426311,1199.02799129486
-9042.4548843503,1215.28475117683
-9028.12907445431,1244.85587096214
-9023.56835448742,1249.01201093197
-9024.72692447901,1247.46725094318
-9014.22623455524,1263.48494082689
-9009.11381459236,1274.88674074411
-9009.26093459129,1268.26634079218
-9010.29077458382,1268.08244079351
-9002.89799463749,1270.67543077469
-9008.78279459476,1259.4207508564
-9012.12977457047,1250.86940091848
-9014.42852455378,1239.15497100353
-9017.84906452894,1229.04047107697
-9024.76370447874,1219.64318114519
-9034.03226441145,1200.90377128124
-9046.86848431826,1176.68414145708
-9055.5669542551,1163.09393155575
-9061.56209421158,1153.80698162317
-9075.52010411024,1130.45168179274
-9085.98401403427,1114.83857190609
-9087.67589402199,1111.89617192745
-9103.95104390383,1084.09049212933
-9110.09330385923,1067.15330225229
-9111.06797385216,1070.99681222439
-9114.89309382439,1065.03845226765
-9123.37088376284,1047.77024239302
-9124.12487375736,1047.89897239208
-9123.40766376257,1056.78134232759
-9128.75915372372,1047.31049239635
-9126.5707437396,1056.59744232893
-9121.09052377939,1064.65226227045
-9120.46526378393,1072.9645422101
-9113.31155383587,1087.86044210196
-9109.61516386271,1096.5037420392
-9102.18560391665,1105.95620197058
-9088.50344401598,1130.76431179047
-9078.03953409195,1153.32884162664
-9072.55931413174,1160.59289157391
-9062.00345420837,1177.67720144987
-9053.52566426992,1192.55471134186
-9052.73489427567,1194.39371132851
-9036.79076439142,1212.21362119913
-9020.03747451305,1239.92735099792
-9016.58015453815,1241.15948098898
-9015.10895454884,1240.90202099085
-9008.58050459623,1258.55642086267
-9001.88654464483,1265.37911081314
-9004.29563462734,1258.42769086361
-9001.77620464563,1265.43428081274
-8999.12804466486,1267.21811079979
-9004.03817462921,1255.19105088711
-9007.51388460398,1250.66711091995
-9017.42609453201,1238.34581100941
-9019.39382451773,1226.19002109766
-9026.76821446419,1215.7996711731
-9037.14017438889,1198.47629129887
-9048.68909430504,1173.33716148138
-9055.32788425684,1159.04813158512
-9063.65855419636,1146.11996167898
-9075.11552411318,1119.89582186937
-9086.03918403387,1110.8295519352
-9083.48297405243,1103.38160198927
-9101.11898392439,1076.3666921854
-9110.07491385937,1060.42256230116
-9110.62661385536,1064.76260226965
-9116.49302381277,1054.37225234509
-9123.75707376003,1040.85560244322
-9124.84208375216,1045.83929240704
-9123.13181376457,1050.40001237392
-9124.51106375456,1043.26469242573
-9120.07907378674,1051.46663236618
-9114.34139382839,1062.02249228954
-9111.93230384588,1070.24282222986
-9106.9853938818,1083.02387213707
-9103.10510390997,1093.06481206417
-9098.04785394669,1102.22303199768
-9085.43231403828,1129.99193179607
-9074.47187411785,1148.32676166296
-9066.34349417686,1162.13765156269
-9061.52531421185,1174.40378147364
-9050.93267428875,1191.69038134813
-9044.18354433775,1196.61890131235
-9034.95176440477,1215.5789911747
-9022.86953449249,1240.46066099405
-9019.72484451532,1238.65844100714
-9017.09507453442,1240.22159099579
-9009.90458458662,1257.48980087042
-9005.50937461853,1267.47557079792
-9007.29320460558,1262.21603083611
-9005.73005461693,1266.1698808074
-9002.0152746439,1265.23199081421
-9006.13463461399,1254.89681088924
-9009.77585458755,1248.79133093357
-9015.86294454336,1235.6057010293
-9019.0260245204,1229.11403107643
-9026.30846446753,1218.13520115614
-9036.80915439129,1197.18899130821
-9045.26855432987,1169.47526150942
-9052.07285428047,1160.64806157351
-9061.12073421478,1146.39581167698
-9073.92017412186,1124.67722183466
-9085.92884403467,1113.20186191797
-9083.15195405483,1107.50096195936
-9095.84105396271,1077.19424217939
-9109.63355386257,1061.04782229662
-9109.96457386017,1066.25219225883
-9115.84937381744,1056.1193023324
-9122.39621376991,1041.22340244055
-9124.49267375469,1043.92673242092
-9123.15020376444,1046.61167240143
-9126.88337373734,1041.38891243935
-9127.78448373079,1046.86913239956
-9122.81918376684,1059.61340230703
-9117.83549380302,1067.07974225283
-9112.70468384027,1078.02179217339
-9105.42224389315,1088.77994209528
-9100.21787393093,1101.39548200369
-9088.00691401958,1125.76223182678
-9079.03259408474,1147.5359916687
-9074.71094411612,1155.05750161409
-9063.45626419783,1175.47040146589
-9056.2841642499,1191.708771348
-9051.11657428741,1194.63278132677
-9039.29180437326,1209.69419121742
-9025.14989447594,1241.14109098911
-9021.23282450438,1240.16642099619
-9017.94101452827,1242.86975097656
-9011.54129457474,1260.39542084932
-9007.10930460691,1264.91936081648
-9007.45871460438,1258.62998086214
-9001.88654464483,1263.74240082502
-9001.50035464764,1260.67127084732
-9003.39452463388,1249.6556609273
-9006.61277461052,1242.50195097923
-9008.13914459944,1229.90480107069
-9015.7893845439,1217.73062115908
-9022.46495449543,1209.34478121996
-9029.98646444082,1187.64458137751
-9044.82719433308,1160.53772157431
-9054.83135426044,1150.00025165081
-9061.67243421078,1136.81462174654
-9073.95695412159,1114.56272190809
-9082.9496640563,1105.55162197351
-9084.82544404268,1099.22546201944
-9101.15576392412,1065.95795226097
-9111.60128384829,1054.11479234695
-9108.45659387112,1060.40417230129
-9116.98955380917,1050.16094237566
-9124.12487375736,1035.90869247913
-9124.56623375416,1040.48780244589
-9123.9409737587,1043.54054242373
-9128.00516372919,1035.61445248127
-9124.69496375322,1040.61653244495
-9121.71578377485,1052.6619823575
-9118.24007380009,1062.7029222846
-9114.56207382679,1075.06100219488
-9109.50482386351,1082.78480213881
-9102.99476391077,1093.52456206083
-9087.60233402252,1122.12101185322
-9077.63495409489,1139.18693172932
-9074.45348411798,1149.41177165508
-9065.40560418367,1167.28685152531
-9058.8587642312,1184.66540139914
-9053.39693427086,1187.12966138124
-9042.65717434883,1206.38399124146
-9028.77272444963,1233.65636104345
-9026.60270446539,1234.87010103464
-9022.3730044961,1236.81944102049
-9012.77342456579,1257.04844087362
-9010.01492458582,1263.57689082623
-9011.08154457808,1255.81631088257
-9007.49549460411,1260.57932084799
-9008.04719460011,1258.28057086468
-9010.36433458328,1246.10639095306
-9013.49063456059,1239.85379099846
-9017.09507453442,1226.83367109299
-9023.73386448622,1212.61820119619
-9029.87612444162,1206.34721124172
-9039.052734375,1188.15950137377
-9050.71199429035,1161.1445915699
-9057.75536423922,1150.33127164841
-9067.63079416752,1137.3295417428
-9079.9337040782,1109.98361194134
-9085.28519403934,1105.71713197231
-9089.6436240077,1100.36564201117
-9107.37158387899,1066.91423225403
-9115.59191381931,1052.68037235737
-9114.54368382692,1057.44338232279
-9119.23313379288,1047.27371239662
-9128.15228372812,1032.02840250731
-9127.85804373026,1037.19599246979
-9126.71786373854,1041.07628244162
-9128.70398372412,1035.5960624814
-9127.87643373013,1042.17968243361
-9123.11342376471,1054.37225234509
-9120.29975378513,1066.1050722599
-9115.53674381971,1076.03567218781
-9110.35076385736,1084.58702212572
-9104.68664389849,1098.04850202799
-9090.32405400276,1124.45654183626
-9079.7681940794,1142.69942170382
-9072.9087241292,1149.26465165615
-9062.66549420357,1167.80177152157
-9052.7165042758,1183.52522140741
-9047.82476431131,1184.92286139727
-9035.85287439823,1208.13104122877
-9024.06488448381,1235.10917103291
-9023.03504449129,1232.29550105333
-9017.94101452827,1234.92527103424
-9007.21964460611,1253.02103090286
-9006.42887461185,1257.03005087376
-9004.58987462521,1250.97974091768
-9001.6842546463,1255.61402088404
-9000.12110465765,1254.49223089218
-9003.79910463095,1244.04671096802
-9007.25642460585,1235.20112103224
-9014.22623455524,1224.20390111208
-9017.29736453295,1215.67094117403
-9027.48542445898,1207.94714123011
-9034.41845440865,1188.4721313715
-9048.8178243041,1160.11475157738
-9056.54162424803,1149.96347165108
-9064.87229418755,1134.4790917635
-9076.07180410624,1111.01345193386
-9085.08290404081,1100.25530201197
-9088.76090401411,1090.28792208433
-9103.0867139101,1061.41562229395
-9111.76679384708,1051.83443236351
-9114.21266382933,1054.62971234322
-9121.40315377712,1044.16580241919
-9128.17067372799,1031.49509251118
-9126.33167374134,1037.43506246805
-9126.6259137392,1037.30633246899
-9130.6901037097,1029.52736252546
-9130.32230371237,1041.37052243948
-9126.60752373934,1047.40244239569
-9121.73417377472,1058.10542231798
-9117.54125380516,1068.67967224121
-9114.35978382826,1077.28619217873
-9106.02911388874,1091.11547207832
-9090.78380399942,1118.97632187605
-9082.74737405777,1132.76882177591
-9074.67416411638,1141.41212171316
-9064.68839418888,1164.96971154213
-9056.56001424789,1181.46554142237
-9053.47049427032,1182.71606141329
-9041.02046436071,1204.06685125828
-9025.1131144762,1231.28405106068
-9026.45558446646,1228.39682108164
-9021.85808449984,1228.4152110815
-9012.77342456579,1246.17995095253
-9008.19431459904,1250.44643092155
-9009.57356458902,1243.03526097536
-9009.33449459076,1248.33158093691
-9007.99202460051,1248.86489093304
-9012.73664456606,1236.56198102236
-9016.98473453522,1232.57135105133
-9020.92019450665,1218.705291152
-9020.58917450905,1210.98149120808
-9027.00728446245,1201.4738612771
-9039.3837543726,1179.18518143892
-9055.03364425898,1152.61163163185
-9064.24703419209,1141.44890171289
-9072.61448413134,1127.71157181263
-9083.63009405136,1103.21609199047
-9090.71024399996,1094.90381205082
-9096.04334396124,1087.78688210249
-9108.93473386765,1054.97912234068
-9116.65853381157,1047.56795239449
-9115.77581381798,1053.63665235043
-9123.03986376524,1039.7154224515
-9131.29697370529,1027.70675253868
-9128.46491372585,1032.10196250677
-9131.33375370502,1032.76400250196
-9137.95415365696,1027.43090254068
-9130.54298371077,1036.23971247673
-9128.77754372358,1044.90140241385
-9124.95242375135,1055.93540233374
-9116.78726381063,1067.06135225296
-9112.59434384108,1076.18279218674
-9104.35562390089,1088.44892209768
-9090.0298140049,1113.99263191223
-9079.3268340826,1129.78964179754
-9074.95001411438,1140.87881171703
-9062.94134420156,1159.19525158405
-9053.76473426819,1176.11405146122
-9052.1096342802,1176.24278146029
-9041.22275435925,1198.43951129913
-9025.86710447073,1226.37392109632
-9024.45107448101,1220.59946113825
-9022.4833444953,1227.91868108511
-9018.29042452574,1241.45372098684
-9012.46079456806,1247.22818094492
-9016.35947453976,1240.20320099592
-9015.66065454483,1247.55920094252
-9013.34351456165,1244.56163096428
-9017.95940452814,1235.7160410285
-9020.75468450785,1228.6358910799
-9027.15440446138,1214.64110118151
-9031.56800442934,1205.44610124826
-9035.94482439756,1195.3867713213
-9042.14225435257,1172.25215148926
-9054.88652426004,1149.44855165482
-9062.09540420771,1138.83752173185
-9070.07666414976,1125.48638182878
-9085.91045403481,1099.00478202105
-9093.3767939806,1094.14982205629
-9097.62488394976,1084.12727212906
-9113.86325383186,1053.56309235096
-9120.593993783,1044.22097241879
-9121.31120377779,1046.5197224021
-9128.83271372318,1035.8719124794
-9135.45311367512,1022.30009257793
-9130.54298371077,1025.92292255163
-9131.62799370289,1028.11133253574
-9134.55200368166,1023.21959257126
-9129.07178372145,1034.89724248648
-9125.30183374882,1041.90383243561
-9120.0974637866,1049.425342381
-9116.62175381184,1063.38335227966
-9114.34139382839,1070.1692622304
-9104.53952389956,1083.75947213173
-9095.39969396591,1110.68243193626
-9085.45070403814,1126.11164182425
-9076.95452409983,1132.60331177711
-9064.92746418715,1155.64598160982
-9061.94828420877,1171.6268914938
-9057.18527424335,1174.56929147243
-9044.60651433468,1194.7799013257
-9030.15197443962,1221.8315911293
-9027.13601446152,1217.96969115734
-9023.51318448782,1223.79932111502
-9015.43997454643,1241.34338098764
-9012.29528456926,1244.92943096161
-9012.97571456432,1239.21014100313
-9010.80569458008,1243.14560097456
-9009.86780458689,1243.07204097509
-9015.21929454803,1234.22645103931
-9021.47189450264,1224.35102111101
-9025.97744446993,1210.77920120955
-9031.29215443134,1201.23479127884
-9037.17695438862,1189.86977136135
-9045.43406432867,1168.85000151396
-9057.88409423828,1142.66264170408
-9065.01941418648,1133.35730177164
-9074.10407412052,1121.71643185616
-9088.87124401331,1098.93122202158
-9092.60441398621,1091.85107207298
-9099.72134393454,1084.62380212545
-9115.26089382172,1050.19772237539
-9121.78934377432,1043.79800242186
-9120.98018378019,1044.25775241852
-9130.70849370956,1032.59849250317
-9138.08288365602,1020.27719259262
-9136.04159367085,1026.73208254576
-9136.59329366684,1026.73208254576
-9140.05061364174,1023.62417256832
-9134.82785367966,1033.55477249622
-9131.64638370275,1041.83027243614
-9127.1224437356,1049.62763237953
-9122.70884376764,1058.52839231491
-9115.61030381918,1068.34865224361
-9107.75777387619,1080.85385215282
-9094.55375397205,1106.6550219655
-9087.76784402132,1121.95550185442
-9081.27617406845,1133.43086177111
-9069.5617441535,1155.05750161409
-9063.40109419823,1168.61093151569
-9056.85425424576,1169.87984150648
-9044.56973433495,1193.47421133518
-9032.1932644248,1215.96518117189
-9033.07598441839,1212.10328119993
-9032.10131442547,1218.33749115467
-9022.75919449329,1241.15948098898
-9021.30638450384,1242.81458097696
-9023.12699449062,1233.43568104506
-9017.33414453268,1243.53179097176
-9017.51804453135,1239.35726100206
-9022.06037449837,1226.006121099
-9027.08084446192,1218.74207115173
-9033.84836441278,1205.07830125093
-9039.53087437153,1197.86942130327
-9041.18597435951,1186.19177138805
-9050.98784428835,1166.53286153078
-9064.52288419008,1137.84446173906
-9069.0652141571,1131.48152178526
-9078.68318408728,1113.3489819169
-9093.06416398287,1090.23275208473
-9097.47776395082,1087.78688210249
-9101.67068392038,1076.7528821826
-9118.36880379915,1044.44165241718
-9127.54541373253,1038.24422246218
-9124.63979375362,1040.89238244295
-9133.3750436902,1025.57351255417
-9138.68975365162,1011.57872265577
-9138.39551365376,1017.16928261518
-9138.50585365295,1019.3025225997
-9142.79072362185,1014.76019263268
-9136.68524366617,1028.58947253227
-9131.42570370436,1037.98676246405
-9129.43958371878,1049.6460223794
-9124.1616537571,1060.31222230196
-9118.53431379795,1071.05198222399
-9112.17137384415,1084.36634212732
-9100.64084392786,1107.85037195683
-9090.1401540041,1121.71643185616
-9084.58637404442,1129.86320179701
-9071.62142413855,1152.44612163305
-9066.95036417246,1165.59497153759
-9060.45869421959,1164.84098154306
-9049.16723430157,1191.10190135241
-9034.41845440865,1214.71466118097
-9032.61623442173,1211.29412120581
-9029.52671444416,1217.21570116282
-9019.61450451612,1237.95962101221
-9016.04684454203,1240.92041099072
-9019.44899451733,1237.35275101662
-9014.70437455177,1239.4492110014
-9019.57772451639,1236.70910102129
-9021.56384450197,1223.35796111822
-9024.94760447741,1215.28475117683
-9028.86467444897,1200.66470128298
-9033.02081441879,1193.34548133612
-9041.33309435844,1181.7781714201
-9051.70505428314,1158.95618158579
-9062.9781242013,1133.19179177284
-9070.35251414776,1124.14391183853
-9079.86014407873,1108.95377194881
-9090.43439400196,1087.86044210196
-9095.05028396845,1082.25149214268
-9103.65680390596,1072.28411221504
-9117.68837380409,1042.65782243013
-9124.87886375189,1033.05824249983
-9127.71092373133,1038.20744246244
-9133.30148369074,1025.57351255417
-9137.6599136591,1013.21543264389
-9140.47358363867,1020.60821259022
-9140.93333363533,1018.93472260237
-9140.63909363747,1015.77164262533
-9140.63909363747,1027.39412254095
-9136.20710366964,1035.30182248354
-9130.9659537077,1043.81639242172
-9124.29038375616,1052.05511236191
-9120.00551378727,1063.53047227859
-9113.69774383307,1076.71610218287
-9097.29386395216,1104.20915198326
-9089.6436240077,1115.48222190142
-9083.24390405416,1122.56237185001
-9070.92260414362,1145.73377168179
-9065.03780418634,1157.4665915966
-9055.93475425243,1159.15847158432
-9045.19499433041,1185.71363139153
-9034.12421441078,1208.75630122423
-9034.23455440998,1201.9703912735
-9032.78174442053,1210.57691121101
-9022.79597449303,1228.8565710783
-9018.56627452374,1231.76219105721
-9021.08570450544,1226.52104109526
-9017.31575453281,1233.61958104372
-9020.09264451265,1227.03596109152
-9026.58431446552,1216.99502116442
-9027.26474446058,1207.26671123505
-9030.99791443348,1193.97074133158
-9038.11484438181,1187.24000138044
-9041.14919435978,1177.54847145081
-9049.6453742981,1157.61371159554
-9062.3160842061,1129.34828180075
-9072.4673641324,1119.03149187565
-9082.06694406271,1102.27820199728
-9096.9996239543,1079.21714216471
-9095.85944396257,1076.421862185
-9100.56728392839,1061.67308229208
-9119.21474379301,1029.03083252907
-9124.38233375549,1027.96421253681
-9127.78448373079,1026.47462254763
-9137.1082136631,1014.66824263334
-9143.14013361931,1003.78136271238
-9141.26435363293,1007.49614268541
-9143.47115361691,1007.44097268581
-9149.06171357632,1006.53986269236
-9142.95623362064,1020.49787259102
-9139.00238364935,1024.13909256458
-9134.84624367952,1034.84207248688
-9128.57525372505,1046.1887024045
-9122.72723376751,1057.84796231985
-9116.12522381544,1070.90486222506
-9099.5742239356,1101.02768200636
-9090.67346400023,1114.80179190636
-9082.91288405657,1123.57382184267
-9072.28346413374,1145.16368168592
-9064.85390418768,1155.73793160915
-9056.85425424576,1158.47804158926
-9045.6915243268,1184.53667140007
-9034.54718440771,1205.7035612464
-9034.51040440798,1199.81876128912
-9033.13115441799,1205.63000124693
-9025.4441344738,1223.76254111528
-9021.21443450451,1225.43603110313
-9023.49479448795,1219.79030114412
-9018.6950045228,1227.27503108978
-9017.27897453308,1217.96969115734
-9021.85808449984,1210.87115120888
-9028.09229445457,1200.57275128365
-9034.36328440905,1186.90898138285
-9040.72622436285,1176.53702145815
-9045.25016433001,1167.08456152678
-9053.01074427366,1144.28096169233
-9065.69984418154,1121.58770185709
-9073.2397441268,1114.61789190769
-9082.7289840579,1098.10367202759
-9096.8892839551,1076.45864218473
-9100.53050392866,1070.51867222786
-9105.56936389208,1058.60195231438
-9121.14569377899,1025.2792725563
-9127.78448373079,1022.72306257486
-9128.33618372679,1024.58045256138
-9137.7150836587,1012.24076265097
-9141.57698363066,998.448262751102
-9139.73798364401,1006.15367269516
-9142.22063362598,1005.05027270317
-9144.88718360662,1001.55617272854
-9139.62764364481,1011.48677265644
-9137.23694366217,1019.43125259876
-9131.92223370075,1030.90661251545
-9127.65575373173,1040.21195244789
-9123.6651237607,1047.93575239182
-9115.42640382051,1065.59015226364
-9101.28449392319,1095.16127204895
-9094.93994396925,1108.97216194868
-9089.20226401091,1117.83614188433
-9074.10407412052,1142.55230170488
-9069.08360415697,1152.66680163145
-9060.64259421825,1158.09185159206
-9045.50762432814,1186.50440138578
-9036.23906439543,1205.00474125147
-9034.62074440718,1201.32674127817
-9032.21165442467,1210.41140121222
-9020.88341450691,1229.16920107603
-9021.69257450104,1222.93499112129
-9025.53608447313,1215.17441117764
-9022.02359449863,1220.87531113625
-9025.90388447046,1216.14908117056
-9028.4049244523,1206.20009124279
-9031.12664443254,1199.78198128939
-9034.60235440731,1189.17095136642
-9039.45731437206,1176.57380145788
-9046.077714324,1164.41801154613
-9056.0634842515,1142.29484170675
-9071.05133414268,1118.27750188112
-9078.11309409142,1109.35835194588
-9086.05757403374,1092.07175207138
-9100.1810939312,1068.51416224241
-9104.00621390343,1066.5464322567
-9112.81502383947,1050.60230237246
-9127.2327837348,1023.62417256832
-9131.26019370556,1020.95762258768
-9131.14985370636,1020.25880259275
-9138.92882364988,1006.74215269089
-9144.83201360703,996.057562768459
-9143.17691361904,1004.24111270905
-9142.88267362118,1002.88025271893
-9146.87330359221,998.650552749634
-9141.50342363119,1011.61550265551
-9139.29662364721,1016.10266262293
-9135.67379367352,1030.42847251892
-9130.4694237113,1041.77510243654
-9124.21682375669,1046.33582240343
-9114.47012382746,1062.50063228607
-9103.43612390757,1088.52248209715
-9095.60198396444,1098.94961202145
-9089.51489400864,1110.64565193653
-9077.56139409542,1133.7618817687
-9070.68353414536,1144.85105168819
-9065.75501418114,1148.38193166256
-9052.4406542778,1176.09566146135
-9040.81817436218,1195.82813131809
-9040.22969436646,1190.77088135481
-9031.47605443001,1198.21883130074
-9025.20506447554,1214.95373117924
-9027.98195445538,1214.89856117964
-9025.62803447247,1208.79308122396
-9019.76162451506,1217.73062115908
-9021.50867450237,1209.93326121569
-9026.60270446539,1201.23479127884
-9029.32442444563,1192.05818134546
-9037.59992438555,1178.44958144426
-9042.3997143507,1170.78095149994
-9050.10512429476,1156.41836160421
-9059.39207422733,1131.95966178179
-9072.26507413387,1110.81116193533
-9078.16826409101,1103.27126199007
-9086.31503403187,1086.92255210876
-9102.68213391304,1063.23623228073
-9104.00621390343,1062.11444228888
-9112.99892383814,1043.88995242119
-9130.87400370836,1013.41772264242
-9135.89447367191,1013.17865264416
-9138.91043365002,1015.9003726244
-9146.00897359848,1000.06658273935
-9150.53291356564,992.434732794762
-9149.94443356991,999.698782742023
-9153.23624354601,993.795592784882
-9153.07073354721,991.368112802505
-9147.29627358913,1003.83653271198
-9145.88024359941,1011.41321265697
-9139.16789364815,1021.04957258701
-9134.33132368326,1034.67656248808
-9128.94305372238,1039.93610244989
-9121.38476377726,1058.38127231598
-9108.73244386911,1084.05371212959
-9103.3073939085,1094.57279205322
-9100.1810939312,1105.90103197098
-9089.22065401077,1128.26327180862
-9078.55445408821,1140.58457171917
-9070.95938414335,1142.12933170795
-9054.22448426485,1172.78546148539
-9046.37195432186,1188.4721313715
-9046.39034432173,1184.5182814002
-9043.98125433922,1194.74312132597
-9034.51040440798,1210.77920120955
-9032.00936442614,1212.89405119419
-9031.10825443268,1205.57483124733
-9028.7911144495,1213.26185119152
-9029.45315444469,1206.34721124172
-9033.86675441265,1196.76602131128
-9036.33101439476,1188.56408137083
-9043.26404434443,1174.9738714695
-9044.91914433241,1165.70531153679
-9052.18319427967,1153.51274162531
-9063.0332942009,1128.61268180609
-9077.17520409822,1108.10783195496
-9082.76576405764,1096.8347620368
-9092.36534398794,1081.62623214722
-9105.03605389595,1058.27093231678
-9108.40142387152,1055.45726233721
-9119.65610378981,1040.69009244442
-9131.70155370235,1008.78344267607
-9132.76817369461,1008.41564267874
-9134.05547368526,1007.36741268635
-9141.96317362785,996.057562768459
-9146.17448359728,988.241812825203
-9141.65054363012,994.053052783012
-9144.68489360809,990.485392808914
-9149.79731357098,992.342782795429
-9143.93090361357,1001.94236272573
-9140.4000236392,1008.30530267954
-9134.33132368326,1019.26574259996
-9130.54298371077,1028.57108253241
-9122.46977376938,1038.22583246231
-9115.42640382051,1056.26642233133
-9104.76020389795,1083.7778621316
-9097.93751394749,1091.44649207592
-9091.18838399649,1102.57244199514
-9081.71753406525,1125.06341183186
-9077.00969409943,1134.66299176216
-9070.81226414442,1138.83752173185
-9051.39242428541,1168.31669151783
-9043.55828434229,1186.89059138298
-9043.11692434549,1183.37810140848
-9039.56765437126,1194.02591133118
-9031.36571443081,1209.60224121809
-9028.4049244523,1207.91036123037
-9030.70367443562,1204.08524125814
-9027.43025445938,1211.27573120594
-9028.00034445524,1204.54499125481
-9030.20714443922,1194.98219132423
-9036.22067439556,1186.78025138378
-9043.20887434483,1172.65673148632
-9045.78347432613,1162.43189156055
-9051.04301428795,1149.66923165321
-9064.63322418928,1124.67722183466
-9076.80740410089,1102.24142199755
-9081.31295406818,1090.45343208313
-9089.01836401224,1072.94615221024
-9103.8590939045,1052.68037235737
-9108.76922386885,1047.82541239262
-9119.63771378994,1031.43992251158
-9134.60717368126,1003.06415271759
-9137.6599136591,1004.86637270451
-9139.02077364922,1005.8042626977
-9145.67795360088,991.110652804375
-9153.25463354588,981.842092871666
-9153.8431135416,986.991292834282
-9155.81084352732,984.453472852707
-9157.8521335125,985.189072847366
-9152.51903355122,997.491982758045
-9152.46386355162,1004.31467270851
-9145.07108360529,1015.12799263
-9132.84173369408,1033.38926249743
-9126.58913373947,1040.19356244802
-9114.19427382946,1055.75150233507
-9100.62245392799,1079.7136721611
-9093.85493397713,1091.11547207832
-9088.06208401918,1099.8507220149
-9078.48089408875,1122.15779185295
-9076.34765410423,1129.73447179794
-9068.43995416164,1133.78027176857
-9054.38999426365,1164.52835154533
-9047.30984431505,1181.41037142277
-9049.93961429596,1176.86804145575
-9043.00658434629,1188.7479813695
-9030.48299443722,1203.91973125935
-9025.13150447607,1203.01862126589
-9027.48542445898,1198.69697129726
-9024.41429448128,1205.46449124813
-9028.69916445017,1197.28094130754
-9034.52879440784,1190.60537135601
-9036.71720439196,1177.73237144947
-9041.75606435537,1168.04084151983
-9045.94898432493,1157.3562515974
-9053.78312426805,1141.48568171263
-9065.12975418568,1117.21088188887
-9077.50622409582,1096.70603203773
-9082.50830405951,1090.195972085
-9097.69844394922,1070.72096222639
-9109.24736386538,1049.24144238234
-9109.85423386097,1049.90348237753
-9119.04923379421,1029.1227825284
-9133.4853836894,1000.48955273628
-9138.08288365602,1002.32855272293
-9139.73798364401,1000.26887273788
-9148.01348358393,985.85111284256
-9150.8823235631,977.851462900639
-9149.87087357044,982.890322864056
-9150.75359356403,976.913572907448
-9149.61341357231,972.389632940292
-9145.18142360449,984.269572854042
-9141.74249362946,991.956592798233
-9137.53118366003,1001.50100272894
-9131.92223370075,1012.77407264709
-9126.60752373934,1021.74839258194
-9117.96422380209,1038.42812246084
-9102.02009391785,1065.00167226791
-9097.25708395243,1071.95309221745
-9093.76298397779,1086.18695211411
-9084.60476404428,1107.2618919611
-9080.92676407099,1114.78340190649
-9074.50865411758,1120.17167186737
-9056.37611424923,1152.70358163118
-9046.66619431973,1166.03633153439
-9045.21338433027,1164.85937154293
-9041.44343435764,1182.77123141289
-9028.33136445284,1203.93812125921
-9027.22796446085,1203.71744126081
-9027.68771445751,1199.70842128992
-9025.6096444726,1202.44853127003
-9027.54059445858,1191.89267134666
-9032.28521442413,1183.23098140955
-9033.24149441719,1178.1553414464
-9038.92400437593,1170.56027150154
-9044.29388433695,1162.06409156322
-9055.29110425711,1142.29484170675
-9065.9389141798,1114.34204190969
-9076.27409410477,1093.35905206203
-9083.48297405243,1081.90208214521
-9092.12627398968,1063.65920227766
-9106.67276388407,1041.46247243881
-9107.83133387566,1041.75671243668
-9118.18490380049,1018.34624260664
-9132.67622369528,991.993372797966
-9137.6599136591,995.193232774734
-9139.99544364214,994.236952781677
-9146.48711359501,976.490602910519
-9150.4409635663,967.810522973537
-9146.24804359674,974.725162923336
-9152.94200354815,970.329952955246
-9149.28239357471,969.484012961388
-9146.19287359715,982.669642865658
-9145.36532360315,991.037092804909
-9138.98399364948,1001.48261272907
-9136.26227366924,1011.57872265577
-9132.93368369341,1022.28170257807
-9122.08358377218,1041.35213243961
-9106.63598388433,1068.84518224001
-9100.65923392773,1076.38508218527
-9090.96770399809,1092.9912520647
-9078.44411408901,1115.00408190489
-9071.73176413774,1122.69110184908
-9064.87229418755,1129.38506180048
-9050.67521429062,1158.25736159086
-9043.87091434002,1169.93501150608
-9041.31470435858,1165.08005154133
-9036.60686439276,1172.54639148712
-9026.40041446686,1193.58455133438
-9026.89694446325,1189.74104136229
-9026.73143446445,1188.0859413743
-9025.97744446993,1193.62133133411
-9030.86918443441,1184.15048140287
-9035.61380439997,1176.50024145842
-9037.78382438421,1167.19490152597
-9045.10304433107,1155.81149160862
-9047.32823431492,1144.88783168793
-9056.67035424709,1132.84238177538
-9067.70435416698,1107.05960196257
-9080.68769407272,1090.83962208033
-9091.53779399395,1076.95517218113
-9099.42710393667,1050.43679237366
-9110.1116938591,1026.25394254923
-9111.03119385242,1024.39655256271
-9119.65610378981,999.459712743759
-9133.74284368753,971.139112949371
-9135.80252367258,971.948272943497
-9137.23694366217,960.638423025608
-9144.22514361143,942.800123155117
-9146.48711359501,933.05342322588
-9146.85491359234,930.920183241367
-9147.92153358459,919.665503323078
-9148.52840358019,918.782783329487
-9148.03187358379,928.860503256321
-9142.84589362144,935.241833209991
-9139.46213364601,946.514903128147
-9137.6599136591,959.976383030415
-9133.816403687,972.444802939892
-9127.82126373053,1001.33549273014
-9117.0815038085,1026.65852254629
-9111.50933384895,1035.04436248541
-9100.16270393133,1046.0783624053
-9089.40455400944,1071.21749222279
-9085.76333403587,1078.86773216724
-9083.66687405109,1093.72685205936
-9065.73662418127,1131.48152178526
-9057.66341423988,1143.39824169874
-9056.74391424656,1134.92045176029
-9046.59263432026,1151.2691616416
-9034.45523440838,1167.6178715229
-9033.66446441412,1163.02037155628
-9032.17487442493,1154.6713116169
-9030.74045443535,1157.963121593
-9036.20228439569,1161.40205156803
-9039.14468437433,1172.19698148966
-9045.23177433014,1173.66818147898
-9049.82927429676,1166.23862153292
-9053.94863426685,1159.87568157911
-9063.47465419769,1147.94057166576
-9070.94099414349,1125.13697183132
-9080.65091407299,1110.8295519352
-9088.44827401638,1105.79069197178
-9095.08706396818,1083.86981213093
-9106.13945388794,1060.77197229862
-9106.17623388767,1053.71021234989
-9114.28622382879,1029.52736252546
-9126.03743374348,1004.24111270905
-9124.93403375149,1007.64326268435
-9126.791423738,997.639102756977
-9128.22584372759,977.630782902241
-9137.1082136631,969.336892962456
-9138.57941365242,979.341052889824
-9145.84346359968,971.801152944565
-9151.30529356003,973.824052929878
-9146.83652359247,985.281022846699
-9144.72167360783,985.225852847099
-9136.07837367058,992.784142792225
-9129.25568372011,997.124182760715
-9124.82369375229,1003.10093271732
-9117.04472380877,1024.17587256432
-9106.4888638854,1044.64394241571
-9104.42918390036,1051.72409236431
-9101.06381392479,1062.7580922842
-9094.70087397099,1082.43539214134
-9094.35146397352,1084.45829212666
-9084.05306404829,1090.39826208353
-9070.72031414509,1118.03843188286
-9066.82163417339,1135.41698175669
-9062.99651420116,1140.19838172197
-9057.14849424362,1157.17235159874
-9052.23836427927,1177.58525145054
-9046.99721431732,1179.40586143732
-9049.95800429583,1176.51863145828
-9049.11206430197,1177.43813145161
-9053.58083426952,1166.56964153051
-9047.71442431211,1166.29379153252
-9046.11449432373,1168.48220151663
-9050.49131429195,1154.2299516201
-9060.16445422173,1146.35903167725
-9072.39380413294,1136.37326174974
-9084.86222404242,1109.37674194574
-9090.67346400023,1083.07904213667
-9093.6526439786,1069.70951223373
-9102.27755391598,1052.7171523571
-9110.3323738575,1035.13631248474
-9106.74632388353,1041.71993243694
-9119.32508379221,1022.8701825738
-9130.6349337101,996.590872764587
-9130.26713371277,998.503432750702
-9133.9819136858,987.046462833881
-9145.91702359915,966.431272983551
-9151.52597355843,959.093663036823
-9149.50307357311,965.695672988892
-9153.71438354254,959.185613036156
-9156.32576352358,958.523573040962
-9151.2685135603,967.387552976608
-9148.76747357845,973.65854293108
-9146.04575359821,989.234872817993
-9145.93541359901,998.558602750301
-9144.48260360956,1006.94444268942
-9135.69218367338,1029.3986325264
-9125.59607374668,1059.83408230543
-9118.36880379915,1063.0339422822
-9112.13459384441,1066.41770225763
-9102.46145391464,1090.34309208393
-9099.88685393333,1107.62969195843
-9092.9354339838,1114.39721190929
-9078.29699409008,1137.14564174414
-9070.38929414749,1135.43537175655
-9070.35251414776,1116.19943189621
-9061.80116420984,1125.67028182745
-9056.54162424803,1141.3385617137
-9058.30706423521,1137.9364117384
-9060.40352421999,1136.17097175121
-9063.23558419943,1123.22441184521
-9069.26750415564,1120.7049818635
-9071.52947413921,1139.99609172344
-9076.56833410263,1155.92183160782
-9078.07631409168,1154.1747816205
-9075.77756410837,1145.97284168005
-9075.8695141077,1126.68173182011
-9081.84626406431,1083.31811213493
-9084.42086404562,1058.05025231838
-9087.91496402025,1053.25046235323
-9103.65680390596,1038.33617246151
-9120.94340378046,1023.12764257193
-9123.4996137619,1028.60786253214
-9139.79315364361,999.441322743893
-9151.76504355669,947.195333123207
-9142.49648362398,910.544063389301
-9143.43437361717,888.053093552589
-9150.2754535675,896.273423492908
-9164.6564334631,934.487843215466
-9172.58252340555,983.07422286272
-9179.84657335281,1000.19531273842
-9181.79591333866,996.406972765923
-9174.62381339073,998.632162749767
-9170.61479341984,1001.94236272573
-9162.59675347805,1026.98954254389
-9154.0086235404,1053.98606234789
-9148.73069357872,1057.92152231932
-9138.23000365496,1050.65747237206
-9122.46977376938,1038.15227246284
-9109.57838386297,1028.7365925312
-9100.67762392759,1051.00688236952
-9086.88512402773,1082.30666214228
-9075.57527410984,1098.39791202545
-9065.68145418167,1121.14634186029
-9047.97188431025,1164.45479154587
-9041.92157435417,1171.27748149633
-9039.34697437286,1168.29830151796
-9030.11519443989,1183.10225141048
-9020.57078450918,1204.25075125694
-9015.20090454817,1207.21154123545
-9010.49306458235,1209.97004121542
-9007.88168460131,1219.45928114653
-9010.43789458275,1209.84131121635
-9017.83067452908,1198.99121129513
-9028.09229445457,1186.37567138672
-9038.62976437807,1171.97630149126
-9042.6755643487,1159.48949158192
-9047.80637431145,1131.55508178473
-9063.73211419582,1098.52664202452
-9074.80289411545,1080.33893215656
-9082.21406406164,1074.50930219889
-9094.27790397406,1051.33790236712
-9101.43161392212,1040.04644244909
-9101.13737392426,1028.01938253641
-9119.04923379421,1001.48261272907
-9131.49926370382,977.336542904377
-9127.15922373533,979.285882890224
-9129.66026371717,971.562082946301
-9139.24145364761,953.558273077011
-9141.88961362839,947.213723123074
-9142.84589362144,946.680413126945
-9144.57455360889,947.103383123875
-9154.19252353907,944.271323144436
-9148.63874357939,948.629753112793
-9129.01661372185,988.186642825603
-9160.27961349487,941.880623161793
-9158.25671350956,941.733503162861
-9153.56726354361,946.772363126278
-9142.57004362345,969.667912960052
-9131.20502370596,991.791082799435
-9129.05339372158,1001.94236272573
-9123.2237637639,1020.42431259155
-9119.30669379234,1047.25532239676
-9116.10683381557,1059.31916230917
-9106.13945388794,1074.01277220249
-9087.16097402573,1101.98396199942
-9078.51767408848,1107.5377419591
-9079.06937408447,1112.72372192144
-9070.62836414576,1141.70636171103
-9059.53919422626,1163.66402155161
-9054.55550426245,1165.28234153986
-9054.42677426338,1172.54639148712
-9050.39936429262,1178.00822144747
-9055.32788425684,1172.01308149099
-9056.30255424976,1169.71433150768
-9068.99165415764,1155.14945161343
-9086.88512402773,1139.03981173038
-9088.42988401651,1132.60331177711
-9088.81607401371,1117.85453188419
-9100.60406392813,1094.35211205482
-9111.03119385242,1083.0606521368
-9111.15992385149,1075.30007219315
-9113.1276538372,1053.48953235149
-9117.55964380503,1035.17309248447
-9114.19427382946,1033.20536249876
-9127.067273736,1009.46387267113
-9134.71751368046,999.147082746029
-9134.0370836854,1008.50759267807
-9139.24145364761,1000.78379273415
-9151.74665355682,982.283452868462
-9160.55546349287,974.559652924538
-9149.96282356977,991.368112802505
-9151.45241355896,992.784142792225
-9153.8431135416,995.892052769661
-9153.75116354227,1009.18802267313
-9154.57871353626,1019.50481259823
-9154.52354353666,1021.12313258648
-9150.4961335659,1021.9874625802
-9142.38614362478,1021.17830258608
-9129.49475371838,1034.71334248781
-9115.37123382092,1048.83686238527
-9115.46318382025,1035.30182248354
-9109.22897386551,1031.89967250824
-9088.66895401478,1051.50341236591
-9067.53884416819,1066.80389225483
-9059.92538422346,1059.70535230637
-9047.45696431398,1080.39410215616
-9044.93753433228,1089.58910208941
-9050.62004429102,1091.46488207579
-9043.76057434082,1112.08007192612
-9037.41602438688,1130.04710179567
-9037.74704438448,1131.72059178352
-9039.60443437099,1134.81011176109
-9063.1988041997,1108.65953195095
-9042.63878434896,1136.31809175014
-9043.44794434309,1170.43154150248
-9059.575974226,1164.988101542
-9059.66792422533,1176.68414145708
-9067.98020416498,1164.34445154667
-9064.98263418674,1147.24175167084
-9071.18006414175,1121.40380185843
-9063.58499419689,1137.12725174427
-9062.51837420464,1138.19387173653
-9062.68388420343,1157.65049159527
-9115.44479382038,1046.22548240423
-8965.34561491013,1253.55434089899
-8989.38134473562,1235.2746810317
-9219.38507306576,872.918123662472
-9218.7598130703,873.543383657932
-9184.2969533205,918.929903328419
-9171.60785341263,932.281043231487
-9171.90209341049,931.32476323843
-9170.9090334177,942.119693160057
-9170.19182342291,934.965983211994
-9165.59432345629,943.82996314764
-9159.98537349701,959.79248303175
-9155.40626353025,973.051672935486
-9152.97878354788,988.683172821999
-9149.35595357418,1004.16755270958
-9143.54471361637,1015.21994262934
-9131.26019370556,1034.27198249102
-9117.22862380743,1049.38856238127
-9110.75534385443,1053.08495235443
-9105.29351389408,1069.396882236
-9095.82266396284,1093.91075205803
-9097.44098395109,1100.16335201263
-9095.62037396431,1120.61303186417
-9082.71059405804,1164.39962154627
-9082.98644405603,1184.9044713974
-9084.08984404802,1184.27921140194
-9074.30636411905,1184.09531140327
-9066.39866417646,1172.17859148979
-9069.5617441535,1157.30108159781
-9069.81920415163,1167.45236152411
-9065.42399418354,1186.76186138391
-9074.14085412025,1189.09739136696
-9078.97742408514,1180.69316142797
-9083.4461940527,1140.6765217185
-9081.05549407005,1084.97321212292
-9085.67138403654,1053.69182235003
-9096.53987395763,1040.34068244696
-9102.90281391144,985.372972846031
-9103.3625639081,937.871603190899
-9108.29108387232,904.21790343523
-9123.20537376404,890.149553537369
-9136.50134366751,899.730743467808
-9143.12174361944,925.053773283958
-9157.9624735117,935.683193206787
-9167.47010344267,921.118313312531
-9156.45449352264,911.224493384361
-9143.65505361557,907.068353414536
-9166.09085345268,887.832413554192
-9166.88162344694,892.135673522949
-9164.45414346457,916.079453349113
-9163.27718347311,929.706443250179
-9167.58044344187,953.595053076744
-9166.55060344934,974.596432924271
-9166.32992345095,984.637372851372
-9162.87260347605,1001.8504127264
-9158.05442351103,1000.56311273575
-9149.61341357231,988.131472826004
-9131.38892370462,1025.6654625535
-9114.78275382519,1074.61964219809
-9104.66825389862,1114.52594190836
-9031.40249443054,1187.79170137644
-9068.03537416458,1214.62271118164
-9075.61205410957,1166.60642153025
-9053.65439426899,1188.45374137163
-9039.73316437006,1203.47837126255
-9031.78868442774,1198.1268813014
-9029.0117944479,1192.37081134319
-9017.24219453335,1216.40654116869
-9015.03539454937,1224.66365110874
-9021.43511450291,1208.03909122944
-9028.7359444499,1198.38434129953
-9022.88792449236,1199.35901129246
-9036.84593439102,1165.50302153826
-9041.40665435791,1153.32884162664
-9030.24392443895,1155.51725161076
-8856.62393569946,1412.00257974863
-8856.62393569946,1412.00257974863
-9110.07491385937,1039.2188924551
-9093.02738398314,1062.83165228367
-9118.11134380102,1041.97739243507
-9137.18177366257,1019.04506260157
-9145.75151360035,1007.79038268328
-9146.79974359274,990.19115281105
-8976.23249483109,1201.21640127897
-8976.23249483109,1201.21640127897
-9234.96140295267,830.786633968353
-9195.25739324093,870.490643680096
-9130.3039137125,1012.95797264576
-9049.79249429703,1164.160551548
-8983.97468477488,1266.57446080446
-8983.97468477488,1266.57446080446
-9216.92081308365,856.532633781433
-9216.92081308365,856.532633781433
-9002.73248463869,1206.40238124132
-9032.67140442133,1179.53459143639
-9045.76508432627,1171.0200214982
-9055.64051425457,1161.1445915699
-9100.25465393066,1069.2865422368
-9025.92227447033,1220.15810114145
-9022.28105449677,1228.6910610795
-9030.42782443762,1221.02243113518
-9034.95176440477,1217.62028115988
-9035.35634440184,1222.56719112396
-9034.49201440811,1218.90758115053
-9022.3730044961,1219.34894114733
-9007.99202460051,1232.3138910532
-9003.70715463161,1217.91452115774
-8996.27759468555,1206.38399124146
-8989.34456473589,1206.80696123838
-8983.99307477474,1202.74277126789
-8986.56767475605,1194.30176132917
-8991.3122947216,1197.04187130928
-8993.75816470385,1183.54361140728
-8996.81090468168,1146.59810167551
-8996.49827468395,1123.27958184481
-8996.24081468582,1117.192491889
-9006.18980461359,1112.48465192318
-9015.31124454737,1100.16335201263
-9024.21200448275,1100.32886201143
-9035.96321439743,1111.98812192678
-9058.9691042304,1110.48014193773
-9119.54576379061,1052.9930023551
-9134.69912368059,1040.81882244349
-9144.99752360582,1032.76400250196
-9082.03016406298,1116.40172189474
-9078.57284408808,1106.83892196417
-9093.1009439826,1072.9093722105
-9099.5742239356,1064.59709227085
-9115.59191381931,1032.01001250744
-9133.17275369167,990.981922805309
-9153.787943542,971.30462294817
-9205.97876316309,895.11485350132
-9179.47877335548,937.669313192368
-9165.28169345856,966.982972979546
-9151.59953355789,981.345562875271
-9143.21369361877,986.145352840424
-9137.69669365883,995.2667927742
-9130.28552371264,997.841392755508
-9122.76401376724,995.248402774334
-9103.28900390863,1011.57872265577
-9092.75153398514,1025.9964825511
-9085.91045403481,1025.5551225543
-9072.04439413548,1045.67378240824
-9064.44932419062,1066.61999225616
-9063.12524420023,1071.95309221745
-9059.15300422907,1097.1106120348
-9046.70297431946,1139.46278172731
-9041.27792435884,1159.54466158152
-9039.89867436886,1179.25874143839
-9034.27133440971,1215.0824611783
-9035.3747344017,1240.69973099232
-9035.33795440197,1241.61923098564
-9034.32650440931,1251.09008091688
-9135.78413367271,1105.34933197498
-9200.11235320568,960.546473026276
-9174.9732233882,992.103712797165
-9163.64498347044,1013.73035264015
-9155.93957352638,1027.63319253922
-9138.06449365616,1047.27371239662
-9108.86117386818,1074.08633220196
-9168.07697343826,961.539533019066
-9158.67968350649,965.088802993298
-9157.31882351637,966.449662983418
-8977.20716482401,1244.28578096628
-8995.24775469303,1198.0165413022
-9010.62179458141,1150.44161164761
-9034.40006440878,1089.22130209208
-9057.60824424028,1053.1033423543
-9076.27409410477,1045.14047241211
-9094.46180397272,1020.86567258835
-9117.4125238061,997.804612755775
-9131.70155370235,1001.09642273188
-9142.33097362518,1009.35353267193
-9153.25463354588,1010.76956266165
-9161.67725348473,1025.5551225543
-9165.94373345375,1032.92951250076
-9164.3254134655,1032.0835725069
-9155.97635352612,1051.94477236271
-9151.85699355602,1078.95968216658
-9148.03187358379,1105.99298197031
-9129.12695372105,1117.79936188459
-9120.5388237834,1099.18868201971
-9122.35943377018,1083.48362213373
-9120.4284837842,1091.96141207218
-9132.73139369488,1072.9093722105
-9221.42636305094,905.100623428822
-9220.70915305614,905.817833423615
-9071.32718414068,1201.9703912735
-9062.00345420837,1218.705291152
-9054.64745426178,1229.64734107256
-9044.10998433828,1234.79654103518
-9015.38480454683,1226.55782109499
-9008.1575345993,1205.6483912468
-9000.61763465405,1203.27608126402
-9005.50937461853,1192.33403134346
-9013.47224456072,1167.43397152424
-9017.49965453148,1155.35174161196
-9025.4993044734,1151.76569163799
-9039.62282437086,1150.03703165054
-9056.70713424683,1149.31982165575
-9071.03294414282,1138.87430173159
-9083.2806840539,1108.32851195335
-9093.74459397793,1090.37987208366
-9102.75569391251,1064.10056227446
-9112.66790384054,1029.03083252907
-9122.01002377272,1012.86602264643
-9127.67414373159,1012.51661264896
-9148.76747357845,985.041952848434
-9157.15331351757,971.98505294323
-9154.32125353813,965.714062988758
-9153.91667354107,932.170703232288
-9155.59016352892,894.029843509197
-9153.19946354628,877.423673629761
-9148.28933358192,872.145743668079
-9152.31674355268,881.837273597717
-9150.51452356577,915.748433351517
-9148.25255358219,940.17035317421
-9140.97011363506,975.681442916393
-9124.23521375656,1019.37608259916
-9109.33931386471,1037.45345246792
-9096.09851396084,1023.09086257219
-9080.00726407766,1024.83791255951
-9066.50900417566,1048.76330238581
-9064.54127418995,1080.08147215843
-9060.12767422199,1123.7209418416
-9054.92330425978,1170.70739150047
-9053.30498427153,1178.19212144613
-9048.17417430878,1193.52938133478
-9036.20228439569,1223.63381111622
-9033.66446441412,1226.96240109205
-9027.08084446192,1227.64283108711
-9015.14573454857,1242.4100009799
-9010.12526458502,1242.48356097937
-9008.89313459396,1232.84720104933
-9008.58050459623,1233.89543104172
-9011.33900457621,1227.55088108778
-9025.29701447487,1211.80904120207
-9035.00693440437,1205.7035612464
-9046.33517432213,1193.67650133371
-9057.58985424042,1187.14805138111
-9065.11136418581,1180.50926142931
-9078.83030408621,1162.70774155855
-9092.31017398834,1132.08839178085
-9100.4569439292,1118.81081187725
-9109.00829386711,1097.09222203493
-9122.96630376577,1056.15608233213
-9132.74978369474,1034.67656248808
-9135.14048367739,1025.11376255751
-9146.33999359608,990.411832809448
-9154.76261353493,961.631483018398
-9147.95831358433,943.88513314724
-9147.29627358913,907.546493411064
-9152.99717354774,859.53020375967
-9155.16719353199,855.686693787575
-9164.01278346777,886.655453562737
-9174.62381339073,921.964253306389
-9166.71611344814,966.008302986622
-9159.70952349901,1008.89378267527
-9151.96733355522,1024.06553256512
-9146.57906359434,1031.16407251358
-9147.57212358713,1047.27371239662
-9140.25290364027,1076.697712183
-9126.82820373774,1115.13281190395
-9123.48122376204,1133.08145177364
-9117.43091380596,1136.64911174774
-9101.02703392506,1148.78651165962
-9087.19775402546,1157.70566159487
-9077.83724409342,1142.79137170315
-9061.04717421532,1140.65813171864
-9041.59055435658,1164.01343154907
-9037.87577438354,1168.04084151983
-9033.77480441332,1184.29760140181
-9024.63497447968,1196.32466131449
-9014.92505455017,1176.50024145842
-9012.90215456486,1159.17686158419
-9008.9299145937,1158.1286315918
-9009.18737459183,1166.18345153332
-9017.03990453482,1169.03390151262
-9023.23733448982,1164.25250154734
-9026.41880446672,1159.50788158178
-9031.8070744276,1151.87603163719
-9032.06453442574,1147.13141167164
-9041.71928435564,1127.54606181383
-9051.88895428181,1086.94094210863
-9066.19637417793,1061.02943229675
-9083.63009405136,1042.58426243067
-9106.10267388821,1023.58739256859
-9118.53431379795,1020.71855258942
-9119.8216137886,1014.48434263468
-9132.10613369942,981.180052876472
-9137.3840636611,962.440643012524
-9137.40245366096,969.704692959785
-9142.75394362211,963.709553003311
-9145.54922360182,966.982972979546
-9142.88267362118,979.175542891026
-9148.38128358126,973.566592931747
-9158.31188350916,950.284853100777
-9158.93714350462,958.008653044701
-9157.72340351343,986.641882836819
-9154.26608353853,1017.53708261251
-9145.05269360542,1038.66719245911
-9144.00446361303,1040.78204244375
-9130.1384037137,1008.61793267727
-9106.02911388874,1006.02494269609
-9093.22967398167,1021.82195258141
-9093.98366397619,1033.75706249475
-9091.26194399595,1052.97461235523
-9083.99789404869,1064.48675227165
-9083.09678405523,1069.69112223387
-9079.29005408287,1093.6532920599
-9071.49269413948,1127.5644518137
-9075.8143441081,1130.61719179153
-9074.74772411585,1127.52767181396
-9065.73662418127,1143.72926169634
-9063.38270419836,1152.46451163292
-9070.03988415003,1148.12447166443
-9071.21684414148,1155.94022160769
-9077.00969409943,1164.19733154774
-9085.08290404081,1157.5769315958
-9087.52877402306,1139.70185172558
-9091.59296399355,1102.57244199514
-9087.97013401985,1075.57592219114
-9088.57700401545,1055.8434523344
-9095.41808396578,1050.82298237085
-9106.7095438838,1064.57870227098
-9118.36880379915,1092.80735206604
-9120.18941378593,1090.80284208059
-9125.94548374414,1040.54297244549
-9127.91321372986,996.848332762718
-9134.11064368486,989.93369281292
-9153.03395354748,972.92294293642
-9156.80390352011,976.858402907848
-9158.91875350475,991.496842801571
-9167.04713344574,993.905932784081
-9180.06725335121,1004.40662270784
-9177.52943336964,1029.67448252439
-9169.73207342625,1045.65539240837
-9165.83339345455,1045.41632241011
-9157.55789351463,1053.47114235163
-9144.39065361023,1050.38162237406
-9132.29003369808,1045.54505240917
-9121.64222377539,1049.51729238033
-9120.593993783,1048.34033238888
-9112.46561384201,1036.68107247353
-9093.3767939806,1036.93853247166
-9080.24633407593,1022.88857257366
-9071.75015413761,1027.30217254162
-9064.96424418688,1069.8934122324
-9060.84488421679,1112.04329192638
-9058.23350423574,1121.64287185669
-9056.68874424696,1136.77784174681
-9052.86362427473,1163.79275155067
-9055.86119425297,1176.20600146055
-9052.62455427647,1194.52244132757
-9054.50033426285,1202.26463127136
-9058.9139342308,1186.22855138779
-9065.7182341814,1148.16125166416
-9059.94377422333,1119.67514187098
-9067.83308416605,1097.55197203159
-9088.57700401545,1081.79174214602
-9104.17172390223,1069.36010223627
-9118.68143379688,1050.63908237219
-9127.1776137352,1033.86740249395
-9135.06692367792,1008.50759267807
-9141.74249362946,979.561732888222
-9151.1030035615,946.680413126945
-9155.14880353212,922.22171330452
-9158.53256350756,907.730393409729
-9171.62624341249,912.217553377151
-9173.59397339821,971.396572947502
-9168.92291343212,1011.92813265324
-9165.24491345882,1021.32542258501
-9161.45657348633,1023.27476257086
-9155.16719353199,1002.91703271866
-9151.72826355696,1014.02459263802
-9154.59710353613,1036.44200247526
-9159.93020349741,1028.07455253601
-9160.68419349194,997.841392755508
-9153.29141354561,989.786572813988
-9130.94756370783,980.573182880878
-9098.43404394388,921.743573307991
-9078.75674408674,886.489943563938
-9083.46458405256,908.962523400784
-9125.32022374868,915.159953355789
-9213.31637310982,848.036453843117
-9181.37294334173,929.65127325058
-9134.05547368526,1047.95414239168
-9105.91877388954,1111.14218193293
-9092.65958398581,1123.33475184441
-9079.823364079,1141.15466171503
-9075.42815411091,1163.31461155415
-9059.53919422626,1215.5789911747
-9033.92192441225,1270.17890077829
-9023.45801448822,1270.38119077682
-9009.46322458982,1257.36107087135
-9001.5739146471,1248.7177709341
-9008.2127045989,1229.59217107296
-9013.60097455978,1222.69592112303
-9014.20784455538,1235.47697103024
-9017.79389452934,1233.23339104652
-9022.17071449757,1226.31875109673
-9033.25988441706,1219.31216114759
-9037.98611438274,1208.90342122316
-9042.14225435257,1196.85797131062
-9046.40873432159,1178.1553414464
-9050.52809429169,1145.10851168633
-9061.35980421305,1108.12622195482
-9061.83794420958,1086.33407211304
-9068.82614415884,1053.3240223527
-9079.271664083,1014.57629263401
-9088.63217401505,999.570052742958
-9093.87332397699,990.099202811718
-9112.92536383867,958.155773043633
-9119.65610378981,937.669313192368
-9115.92293381691,925.660643279552
-9119.76644378901,913.872653365135
-9124.18004375696,910.268213391304
-9124.78691375256,918.782783329487
-9125.17310374975,914.626643359661
-9129.84416371584,908.024633407593
-9124.21682375669,915.251903355122
-9111.41738384962,918.76439332962
-9105.31190389395,927.021503269672
-9110.01974385977,938.570423185825
-9121.38476377726,942.634613156319
-9133.50377368927,964.684222996235
-9139.73798364401,1013.10509264469
-9150.51452356577,1044.84623241425
-9159.54401350021,1053.41597235203
-9157.26365351677,1061.21333229542
-9150.80876356363,1068.29348224401
-9135.67379367352,1079.84240216017
-9116.6401438117,1131.20567178726
-9098.83862394094,1179.11162143946
-9093.3767939806,1173.11648148298
-9082.37957406044,1172.32571148872
-9063.75050419569,1207.02764123678
-9055.64051425457,1250.86940091848
-9045.02948433161,1250.83262091875
-9035.2643944025,1211.11022120714
-9032.83691442013,1165.66853153706
-9026.84177446365,1124.65883183479
-9030.06002444029,1103.142531991
-9041.09402436018,1130.87465178967
-9047.69603431225,1172.93258148432
-9048.9833343029,1201.95200127363
-9065.01941418648,1196.91314131021
-9071.62142413855,1187.09288138151
-9079.3820040822,1189.90655136108
-9088.35632401705,1166.38574153185
-9099.92363393307,1131.16889178753
-9101.90975391865,1111.52837193012
-9101.43161392212,1094.31533205509
-9119.01245379448,1046.92430239916
-9125.00759375095,1012.84763264656
-9123.09503376484,990.393442809582
-9129.27407371998,975.203302919865
-9136.79558366537,974.449312925339
-9139.13111364841,986.697052836418
-9141.50342363119,994.32890278101
-9148.73069357872,996.811552762985
-9143.43437361717,1011.21092265844
-9143.15852361917,1016.80148261786
-9133.20953369141,1024.70918256044
-9128.52008372545,1030.96178251505
-9125.59607374668,1029.19634252787
-9122.26748377085,1031.38475251198
-9115.29767382145,1051.96316236258
-9111.10475385189,1061.26850229502
-9106.89344388247,1065.79244226217
-9096.37436395884,1084.01693212986
-9089.38616400957,1088.74316209555
-9083.29907405376,1086.15017211437
-9072.43058413267,1109.26640194654
-9060.51386421919,1125.70706182718
-9057.09332424402,1122.61754184961
-9054.77618426085,1121.0360018611
-9198.2365732193,916.318523347378
-9264.71642273664,777.95216435194
-9235.01657295227,813.53681409359
-9203.01797318459,852.799463808537
-9184.70153331757,874.904243648052
-9185.17967331409,897.376823484898
-9177.9340133667,905.155793428421
-9180.30632334948,902.636363446712
-9173.22617340088,891.657533526421
-9162.87260347605,884.871623575687
-9162.78065347672,868.522913694382
-9171.66302341223,844.174553871155
-9171.88370341063,836.1932939291
-9175.89272338152,827.016683995724
-9179.47877335548,861.148523747921
-9165.22652345896,933.513173222542
-9061.45175421238,1104.42983198166
-9041.57216435671,1109.96522194147
-9036.31262439489,1093.1015920639
-9035.57702440023,1107.59291195869
-9051.96251428127,1108.76987195015
-9073.350084126,1109.91005194187
-9086.0759640336,1110.3330219388
-9087.76784402132,1094.20499205589
-9095.74910396338,1076.697712183
-9100.58567392826,1106.26883196831
-9096.4479239583,1141.08110171556
-9094.31468397379,1149.06236165762
-9091.53779399395,1138.52489173412
-9090.12176400423,1117.3028318882
-9092.18144398928,1123.27958184481
-9083.92433404922,1151.76569163799
-9082.65542405844,1163.95826154947
-9074.03051412106,1160.77679157257
-9056.52323424816,1170.46832150221
-9049.73732429743,1165.72370153666
-9045.5811843276,1149.96347165108
-9035.96321439743,1172.14181149006
-9027.13601446152,1199.43257129192
-9031.31054443121,1199.83715128899
-9026.06939446926,1209.93326121569
-9018.9156845212,1231.72541105747
-9018.5846645236,1232.05643105507
-9020.29493451118,1224.64526110888
-9021.96842449903,1228.87496107817
-9019.92713451385,1227.67961108685
-9027.94517445564,1219.90064114332
-9029.50832444429,1214.8617811799
-9033.24149441719,1198.03493130207
-9041.07563436031,1180.72994142771
-9049.5350342989,1162.21121156216
-9057.97604423761,1136.13419175148
-9069.32267415524,1108.36529195309
-9073.074234128,1091.81429207325
-9082.47152405977,1063.10750228167
-9097.33064395189,1025.81258255243
-9104.17172390223,1001.33549273014
-9116.89760380983,970.458682954311
-9135.71057367325,921.044753313065
-9142.38614362478,905.358083426952
-9146.00897359848,897.358433485031
-9162.65192347765,881.726933598518
-9175.48814338446,871.079123675823
-9176.94095337391,881.524643599987
-9181.2809933424,886.526723563671
-9185.29001331329,895.206803500652
-9181.02353334427,917.550653338432
-9174.27440339327,931.766123235226
-9164.12312346697,943.333433151245
-9155.46143352985,957.916703045368
-9150.73520356417,966.90941298008
-9144.96074360609,984.196012854576
-9135.32438367605,1018.98989260197
-9127.37990373373,1031.16407251358
-9120.02390378714,1035.55928248167
-9111.06797385216,1075.20812219381
-9098.78345394135,1092.9912520647
-9070.27895414829,1048.39550238848
-9028.77272444963,1029.76643252373
-9002.86121463776,1053.59987235069
-8999.20160466433,1093.08320206404
-9010.51145458221,1154.65292161703
-9023.23733448982,1212.63659119606
-9033.90353441238,1221.7764211297
-9040.08257436752,1218.33749115467
-9029.63705444336,1239.1733610034
-9030.11519443989,1247.17301094532
-9028.91984444857,1247.37530094385
-9029.65544444323,1237.24241101742
-9039.88028436899,1216.75595116615
-9053.63600426912,1210.87115120888
-9068.01698416471,1204.72889125347
-9085.83689403534,1188.98705136776
-9107.0405638814,1157.9079515934
-9113.0724838376,1134.84689176083
-9116.32751381397,1104.11720198393
-9124.34555375576,1079.30909216404
-9126.42362374067,1084.14566212893
-9132.98885369301,1070.64740222692
-9149.30078357458,1034.12486249208
-9156.67517352104,1025.53673255444
-9161.54852348566,1017.11411261559
-9170.19182342291,984.784492850304
-9173.52041339874,948.004493117332
-9173.35490339994,944.970143139362
-9181.90625333786,946.790753126144
-9187.84622329473,953.484713077545
-9182.47634333372,956.70296305418
-9171.09293341637,935.701583206654
-9158.23832350969,894.949343502522
-9158.44061350822,875.382383644581
-9154.46837353706,895.280363500118
-9150.05477356911,968.969092965126
-9138.46907365322,1032.61688250303
-9134.75429368019,1049.7563623786
-9131.03951370716,1033.42604249716
-9121.31120377779,1048.19321238995
-9118.40558379889,1082.78480213881
-9112.63112384081,1122.21296185255
-9093.35840398073,1179.01967144012
-9075.85112410784,1194.30176132917
-9059.96216422319,1174.8083614707
-9047.58569431305,1170.81773149967
-9036.40457439423,1177.73237144947
-9033.82997441292,1171.3510414958
-9031.71512442827,1175.81981146336
-9036.44135439396,1198.88087129593
-9048.33968430758,1198.69697129726
-9058.76681423187,1171.77401149273
-9060.80810421705,1139.86736172438
-9069.98471415043,1139.13176172972
-9088.28276401758,1168.1695715189
-9106.80149388313,1183.87463140488
-9121.60544377565,1177.25423145294
-9129.9728937149,1150.86458164454
-9133.90835368633,1135.60088175535
-9143.9125136137,1094.79347205162
-9156.58322352171,1038.18905246258
-9145.76990360022,972.518362939358
-9137.62313365936,875.327213644981
-9137.93576365709,776.076384365559
-9124.45589375496,736.611444652081
-9115.09538382292,720.373074769974
-9109.81745386124,722.579874753952
-9116.16200381517,748.381044566631
-9121.99163377285,782.145084321499
-9140.19773364067,840.570113897324
-9152.72132354975,911.058983385563
-9149.66858357191,988.039522826672
-9140.5103636384,1032.59849250317
-9131.31536370516,1068.73484224081
-9119.25152379274,1082.38022214174
-9118.18490380049,1097.77265202999
-9119.52737379074,1122.52559185028
-9110.62661385536,1139.18693172932
-9107.44514387846,1137.91802173853
-9104.50274389982,1147.79345166683
-9102.66374391317,1173.88886147738
-9100.2914339304,1171.461381495
-9085.00934404135,1152.39095163345
-9066.50900417566,1182.42182141542
-9051.31886428595,1222.53041112423
-9051.09818428755,1228.50716108084
-9047.75120431185,1213.55609118938
-9028.29458445311,1204.58177125454
-9021.14087450504,1205.66678124666
-9020.93858450651,1204.45304125547
-9016.12040454149,1218.19037115574
-9012.58952456713,1228.32326108217
-9019.37543451786,1223.32118111849
-9027.87161445618,1212.1216711998
-9034.43684440851,1194.11786133051
-9035.77931439877,1183.37810140848
-9046.1328843236,1163.46173155308
-9057.79214423895,1136.15258175135
-9068.07215416431,1106.8205319643
-9075.17069411278,1092.25565207005
-9090.01142400503,1067.66822224855
-9104.94410389662,1037.49023246765
-9104.37401390076,1029.26990252733
-9109.44965386391,1003.10093271732
-9124.54784375429,965.622112989426
-9128.96144372225,949.89866310358
-9131.05790370703,931.048913240433
-9136.92431366444,901.86398345232
-9142.27580362558,878.582243621349
-9140.93333363533,866.040263712406
-9145.76990360022,850.390373826027
-9154.81778353453,846.730763852596
-9158.23832350969,855.116603791714
-9162.33929347992,861.497933745384
-9164.89550346136,869.313683688641
-9161.87954348326,893.055173516273
-9168.64706343412,918.654053330421
-9165.63110345602,953.558273077011
-9158.12798351049,996.223072767258
-9147.79280358553,1041.66476243734
-9150.25706356764,1083.57557213306
-9143.9676836133,1119.78548187017
-9140.6207036376,1133.9273917675
-9140.565533638,1151.96798163652
-9129.75221371651,1188.10433137417
-9105.99233388901,1193.60294133425
-9089.57006400824,1175.85659146309
-9068.73419415951,1183.47005140781
-9045.28694432974,1186.32050138712
-9029.14052444696,1147.57277166843
-9016.72727453709,1114.39721190929
-9007.56905460358,1144.6855416894
-9015.53192454576,1182.67928141356
-9021.04892450571,1213.09634119272
-9033.84836441278,1230.97142106295
-9050.30741429329,1219.10987114906
-9053.19464427233,1202.48531126976
-9053.08430427313,1179.18518143892
-9062.94134420156,1148.98880165815
-9074.95001411438,1121.34863185883
-9079.41878408194,1107.70325195789
-9091.70330399275,1087.21679210663
-9099.8500739336,1072.81742221117
-9091.22516399622,1069.76468223333
-9097.44098395109,1044.33131241798
-9116.87921380997,1009.11446267366
-9124.54784375429,999.974632740021
-9133.09919369221,994.163392782211
-9144.31709361076,976.656112909317
-9150.22028356791,966.964582979679
-9151.96733355522,976.306702911854
-9153.49370354414,969.447232961655
-9160.18766349554,966.247372984886
-9158.66129350662,976.766452908516
-9159.15782350302,982.099552869797
-9159.30494350195,992.030152797699
-9156.10508352518,1007.01800268888
-9150.68003356457,1015.6245226264
-9141.98156362772,1039.7154224515
-9137.0530436635,1067.37398225069
-9142.93784362078,1079.4929921627
-9135.96803367138,1082.39861214161
-9116.54819381237,1081.00097215176
-9103.16027390957,1061.25011229515
-9094.35146397352,1041.07628244162
-9082.17728406191,1056.79973232746
-9071.16167414188,1086.59153211117
-9072.94550412893,1094.40728205442
-9066.30671417713,1094.66474205256
-9044.58812433481,1087.76849210262
-9031.77029442787,1043.55893242359
-9030.39104443789,1004.75603270531
-9033.35183441639,999.625222742558
-9040.32164436579,1011.79940265417
-9044.45939433575,1050.97010236979
-9050.01317429543,1086.7938221097
-9067.57562416792,1111.30769193172
-9076.4212141037,1119.60158187151
-9087.49199402332,1120.1532818675
-9105.03605389595,1101.72650200129
-9117.89066380262,1051.48502236605
-9116.10683381557,1003.85492271185
-9127.04888373613,983.294902861118
-9141.42986363173,1001.94236272573
-9141.117233634,1025.70224255323
-9142.07351362705,1006.61342269182
-9143.7470036149,977.391712903976
-9137.3840636611,986.825782835484
-9132.93368369341,993.850762784481
-9149.02493357658,972.867772936821
-9160.77614349127,966.265762984753
-9165.59432345629,986.770612835884
-9174.56864339113,1014.39239263535
-9169.47461342812,1043.09918242693
-9159.65435349941,1074.10472220182
-9160.37156349421,1080.41249215603
-9148.54679358006,1083.18938213587
-9138.72653365135,1077.94823217392
-9124.82369375229,1061.04782229662
-9103.78553390503,1054.02284234762
-9081.95660406351,1073.6817522049
-9079.74980407953,1083.6675221324
-9070.81226414442,1091.33615207672
-9055.45661425591,1112.96279191971
-9057.01976424456,1110.86633193493
-9057.24044424295,1082.76641213894
-9054.05897426605,1047.78863239288
-9048.78104430437,998.576992750168
-9050.39936429262,965.842792987823
-9041.22275435925,966.137032985687
-9027.04406446218,966.651952981949
-9030.07841444016,971.506912946701
-9038.17001438141,982.412182867527
-9032.579454422,995.781712770462
-9026.98889446259,963.838283002377
-9031.47605443001,920.474663317204
-9043.77896434069,900.5031234622
-9061.37819421291,927.628373265266
-9075.17069411278,970.421902954578
-9095.38130396605,1031.95484250784
-9119.67449378967,1099.51970201731
-9130.56137371063,1157.4665915966
-9134.33132368326,1178.46797144413
-9137.51279366016,1142.46035170555
-9137.25533366203,1091.77751207352
-9126.14777374268,1045.93124240637
-9115.72064381838,1010.12591266632
-9131.02112370729,1026.25394254923
-9149.57663357258,1075.48397219181
-9168.02180343866,1080.1550321579
-9175.94789338112,1042.8417224288
-9176.02145338058,1002.457282722
-9179.77301335335,993.372622787952
-9188.76572328806,1009.57421267033
-9181.24421334267,1056.174472332
-9165.44720345736,1104.28271198273
-9154.48676353693,1129.62413179874
-9134.88302367926,1136.31809175014
-9122.83757376671,1107.05960196257
-9117.78032380342,1087.29035210609
-9108.80600386858,1109.89166194201
-9094.73765397072,1142.79137170315
-9088.15403401852,1161.29171156883
-9082.60025405884,1166.82710152864
-9073.31330412626,1151.67374163866
-9068.47673416138,1111.30769193172
-9065.42399418354,1099.9610620141
-9059.92538422346,1141.74314171076
-9058.36223423481,1167.32363152504
-9064.48610419035,1170.909681499
-9062.24252420664,1195.42355132103
-9050.14190429449,1217.28926116228
-9047.03399431705,1216.11230117083
-9039.58604437113,1210.54013121128
-9031.14503443241,1200.88538128138
-9032.48750442266,1179.77366143465
-9044.44100433588,1169.29136151075
-9050.65682429075,1167.47075152397
-9051.76022428274,1162.48706156015
-9053.37854427099,1159.32398158312
-9063.40109419823,1136.13419175148
-9083.86916404963,1101.92879199982
-9099.86846393347,1082.82158213854
-9104.30045390129,1075.39202219248
-9118.51592379808,1055.80667233467
-9136.05998367071,1033.72028249502
-9140.54714363813,1035.651232481
-9148.74908357859,1014.04298263788
-9159.96698349714,977.428492903709
-9158.56934350729,967.001362979412
-9165.74144345522,946.496513128281
-9174.88127338886,915.288683354855
-9182.86253333092,899.804303467274
-9183.19355332851,903.280013442039
-9185.80493330956,890.995493531227
-9179.27648335695,865.819583714008
-9166.14602345228,845.130833864212
-9157.50272351503,837.020843923092
-9147.46178358793,842.813693881035
-9149.37434357405,849.875453829765
-9155.60855352879,861.130133748055
-9159.74630349874,904.034003436565
-9152.15123355389,956.997203052044
-9140.565533638,972.97811293602
-9127.26956373453,970.440292954445
-9111.14153385162,980.260552883148
-9098.34209394455,959.11205303669
-9081.38651406765,918.782783329487
-9071.03294414282,932.115533232689
-9076.49477410316,968.913922965527
-9083.83238404989,1007.97428268194
-9081.58880406618,1074.12311220169
-9069.30428415537,1146.28547167778
-9056.90942424536,1187.49746137857
-9059.50241422653,1206.75179123878
-9073.1294041276,1211.71709120274
-9091.61135399342,1209.85970121622
-9093.50552397966,1224.25907111168
-9086.77478402853,1244.13866096735
-9079.17971408367,1248.69938093424
-9081.58880406618,1245.13172096014
-9076.54994410276,1236.1574010253
-9078.22343409061,1216.70078116655
-9085.26680403948,1191.4880913496
-9089.84591400623,1168.85000151396
-9095.28935396671,1141.30178171396
-9102.09365391731,1101.06446200609
-9096.2824139595,1045.83929240704
-9101.26610392332,969.300112962723
-9127.30634373426,925.954883277416
-9137.58635365963,942.046133160591
-9144.2435336113,957.38339304924
-9149.74214357138,960.528083026409
-9155.47982352972,961.190123021603
-9158.34866350889,965.879572987556
-9169.21715342999,945.613793134689
-9175.78238338232,926.396243274212
-9176.37086337805,892.264403522015
-9179.47877335548,868.081553697586
-9175.24907338619,866.794253706932
-9169.84241342545,867.603413701057
-9169.80563342571,866.426453709602
-9161.3094534874,861.019793748856
-9143.25047361851,870.343523681164
-9122.94791376591,876.265103638172
-9109.90940386057,864.311603724957
-9105.91877388954,841.195373892784
-9104.04299390316,854.914313793182
-9098.15819394588,913.670363366604
-9094.53536397219,1005.4180727005
-9089.8091340065,1063.62242227793
-9085.56104403734,1089.66266208887
-9071.69498413801,1108.64114195108
-9055.27271425724,1103.10575199127
-9043.87091434002,1072.76225221157
-9034.87820440531,1070.2796022296
-9025.79354447126,1095.40034204721
-9031.05308443308,1121.01761186123
-9054.13253426552,1172.16020148993
-9078.31538408995,1212.48947119713
-9095.03189396858,1246.253510952
-9110.68178385496,1263.77918082476
-9122.28587377071,1245.79376095533
-9122.80079376698,1206.42077124119
-9119.39864379168,1192.99607133865
-9114.94826382399,1168.55576151609
-9115.94132381678,1140.71330171824
-9120.63077378273,1098.37952202559
-9112.68629384041,1052.9378323555
-9126.9017637372,1007.75360268354
-9143.98607361317,996.020782768726
-9144.26192361116,1034.69495248795
-9137.3840636611,1045.03013241291
-9131.66477370262,1006.96283268929
-9133.15436369181,965.750842988491
-9132.47393369675,962.256743013859
-9138.11966365576,979.929532885551
-9133.28309369087,1001.7952427268
-9130.65332370996,1011.70745265484
-9132.17969369888,1027.46768254042
-9126.7362537384,1046.28065240383
-9124.84208375216,1049.18627238274
-9122.69045376778,1059.1352623105
-9111.65645384789,1079.29070216417
-9096.48470395803,1099.72199201584
-9093.13772398233,1108.01588195562
-9085.70816403627,1113.23864191771
-9072.30185413361,1119.91421186924
-9068.09054416418,1119.43607187271
-9063.1988041997,1126.22198182344
-9046.83170431852,1157.30108159781
-9037.89416438341,1161.40205156803
-9037.37924438715,1162.19282156229
-9030.50138443708,1180.10468143225
-9023.51318448782,1171.0200214982
-9028.91984444857,1135.61927175522
-9033.60929441452,1132.56653177738
-9035.41151440144,1142.42357170582
-9046.28000432253,1147.35209167004
-9054.73940426111,1167.02939152718
-9061.54370421171,1186.15499138832
-9070.13183414936,1187.33195137978
-9073.38686412573,1183.69073140621
-9085.11968404055,1162.79969155788
-9103.2522239089,1117.61546188593
-9113.7896938324,1072.98293220997
-9116.6953138113,1076.84483218193
-9120.042293787,1067.98085224628
-9119.9871237874,1035.39377248287
-9109.26575386524,985.317802846432
-9110.79212385416,896.567663490772
-9122.89274376631,824.754714012146
-9136.97948366404,826.612103998661
-9154.85456353426,874.885853648186
-9172.54574340582,916.759883344173
-9177.75011336803,946.790753126144
-9177.7685033679,977.189422905445
-9181.37294334173,993.666862785816
-9178.63283336163,1010.54888266325
-9165.79661345482,1015.20155262947
-9155.73728352785,1014.35561263561
-9147.2594935894,1008.30530267954
-9144.44582360983,1004.24111270905
-9141.92639362812,1005.21578270197
-9135.89447367191,1020.88406258821
-9125.74319374561,1032.7456125021
-9120.88823378086,1038.22583246231
-9110.71856385469,1050.28967237473
-9097.14674395323,1070.42672222853
-9095.52842396498,1073.79209220409
-9093.74459397793,1089.62588208914
-9081.00032407045,1120.28201186657
-9080.88998407125,1119.38090187311
-9081.90143406391,1112.46626192331
-9068.29283416271,1124.18069183826
-9063.0332942009,1155.68276160955
-9072.54092413187,1168.73966151476
-9078.24182409048,1161.5859515667
-9076.80740410089,1157.00684159994
-9077.50622409582,1131.64703178406
-9072.92711412907,1094.38889205456
-9058.39901423454,1073.93921220303
-9045.17660433054,1064.83616226912
-9034.52879440784,1043.96351242065
-9036.07355439663,1010.29142266512
-9042.38132435083,983.221342861652
-9054.61067426205,992.342782795429
-9079.29005408287,1012.20398265123
-9107.40836387873,1012.2775426507
-9129.05339372158,1014.42917263508
-9135.93125367165,1016.0658826232
-9151.06622356176,1010.91668266058
-9168.66545343399,1007.01800268888
-9168.75740343332,1011.7810126543
-9162.48641347885,976.159582912922
-9157.02458351851,929.835173249245
-9155.64533352852,917.293193340302
-9155.18558353186,921.706793308258
-9166.12763345242,925.697423279285
-9176.60993337631,932.924693226814
-9179.60750335455,953.576663076878
-9176.46281337738,969.005872964859
-9172.85837340355,984.968392848969
-9162.72548347712,1006.04333269596
-9144.28031361103,1027.72514253855
-9116.32751381397,1075.92533218861
-9105.31190389395,1123.96001183987
-9112.68629384041,1161.45722156763
-9115.31606382132,1175.59913146496
-9115.57352381945,1198.5682412982
-9114.54368382692,1206.07136124372
-9107.37158387899,1202.88989126682
-9084.69671404362,1208.68274122477
-9076.62350410223,1189.24451136589
-9070.22378414869,1163.90309154987
-9057.13010424376,1152.35417163372
-9050.62004429102,1154.5609716177
-9049.88444429636,1136.37326174974
-9041.59055435658,1128.07937180996
-9044.38583433628,1140.76847171783
-9048.10061430931,1150.6071216464
-9049.05689430237,1151.85764163733
-9052.01768428087,1138.70879173279
-9043.72379434109,1132.67687177658
-9041.07563436031,1118.40623188019
-9046.68458431959,1073.55302220583
-9061.23107421398,1027.28378254175
-9072.6880441308,1026.2171625495
-9078.95903408527,1044.91979241371
-9091.29872399569,1042.5658724308
-9102.49823391438,1020.07490259409
-9107.2612438798,983.681092858315
-9126.38684374094,922.184933304787
-9147.24110358953,895.611383497715
-9153.27302354574,908.024633407593
-9168.02180343866,925.56869328022
-9177.36392337084,952.068683087826
-9179.77301335335,988.094692826271
-9179.42360335588,1019.04506260157
-9179.62589335442,1031.71577250957
-9183.26711332798,1042.87850242853
-9181.5568433404,1049.5908523798
-9179.25809335709,1048.61618238688
-9168.33443343639,1055.73311233521
-9163.60820347071,1043.63249242306
-9165.85178345442,1014.83375263214
-9153.47531354427,1012.42466264963
-9141.20918363333,1021.84034258127
-9135.65540367365,1028.55269253254
-9130.2487437129,1060.49612230062
-9122.46977376938,1109.13767194748
-9115.64708381891,1134.49748176336
-9104.96249389648,1156.51031160355
-9085.72655403614,1188.82154136896
-9077.96597409248,1185.19871139526
-9064.21025419235,1161.6411215663
